##TITLE= TSR_2002_23_FORS_00009.asd.sco | Av. of  3
##JCAMP-DX=4.24
##DATA TYPE=INFRARED SPECTRUM
##SAMPLING PROCEDURE=
##ORIGIN= ASD Instrument
##XUNITS=NANOMETERS
##YUNITS=REFLECTANCE
##RESOLUTION=1
##FIRSTX=350
##LASTX=2500
##DELTAX=1
##MAXY=0.70845729
##MINY=0.10773066
##XFACTOR=1
##YFACTOR=6.5980227e-010
##NPOINTS=2151
##FIRSTY=0.177733
##XYDATA=(X++(Y..Y))
350+269373133+258120762+259239768+257527654+246657251+238527519+237544899
357+236857298+232269595+232045762+232245859+231365772+228349754+219762306
364+213196693+211499756+213286624+213304804+210205902+204504748+198265998
371+199548153+199828063+195514126+198816648+199986175+196588686+190452988
378+190117566+191104228+191612442+191484638+188899020+188571661+190775333
385+190644480+188883854+188059381+189160715+189180420+189130915+188349838
392+186636741+187524868+187856778+187327831+187412714+187427349+186811543
399+186624082+189660844+189992268+189234984+189238021+188110907+187805252
406+188572643+189738670+189843732+189333982+188944482+189446632+190738453
413+191356811+191122928+192180302+192521821+192229309+192016114+192680950
420+193656998+194186960+193725744+193689338+194126344+194802811+195368118
427+195969312+196239104+196158794+196803892+197431893+197898190+198323068
434+198807998+199166230+199410253+199753783+200383252+201009221+201452776
441+201997396+202070637+202120164+202659703+202677386+202985052+203592817
448+203806013+203699415+203852491+204341531+204100557+203950485+204078809
455+204334937+204023793+203920177+204106090+204074269+204051527+204007058
462+203911594+203806013+203708471+203546339+203276073+203164913+203022926
469+202698615+202141371+202082787+202012030+201605852+201308282+201088017
476+200731344+200096296+199747211+199295570+198761045+198521110+198084104
483+197452106+196753913+196221917+195546466+194865460+194414813+194011142
490+193441272+192769390+192310658+191639227+190970845+190517692+190210004
497+189837679+189427966+189052616+188308441+187740593+187481427+187125781
504+186579625+185993100+185480821+184838208+184318329+183827290+183127606
511+182418787+181731197+181053229+180340390+179442156+178622697+178071008
518+177358180+176503376+175580379+174705374+174008694+173429238+172846721
525+172086918+171378607+170849175+170489950+169861982+169413391+169171400
532+168795022+168545962+168433278+168394885+168304446+168365073+168509602
539+168588387+168721758+168842494+168933452+169046091+169140064+169137049
546+168988524+168752586+168397934+167937180+167416319+166941428+166396311
553+165815331+165504616+165212635+164960527+164842817+164896376+165011059
560+165098460+165107042+165100470+165080788+165028731+164916058+164761480
567+164545755+164241127+163844050+163508572+163321642+163277196+163285281
574+163445934+163795031+164032979+164431592+164986307+165542016+166240705
581+166990425+167703772+168332236+169163812+170092895+170934036+171743874
588+172722959+173852072+174930189+176140650+177407188+178631798+179740224
595+180857208+182021202+183227113+184451237+185778369+187154542+188343797
602+189641151+190989026+192281344+193522124+194825576+196198181+197561210
609+198811589+200055893+201359322+202664761+203852491+204984145+206160786
616+207344428+208477120+209575417+210727780+211881678+213028486+214171250
623+215337729+216571440+217814750+218983803+220169004+221437563+222774823
630+224064589+225366528+226702750+228087527+229544485+231003045+232467162
637+233978186+235530155+237144299+238818517+240509945+242291754+244090818
644+245841845+247713586+249671801+251661251+253631549+255782702+258036884
651+260295177+262503874+264879402+267394727+269936927+272520569+275188021
658+277980251+280933169+283856253+286817210+289919681+293199461+296557563
665+299948955+303378265+306972779+310708739+314558388+318519152+322548685
672+326664016+330905706+335322152+339783136+344314288+349034877+353888375
679+358854501+363911551+369027185+374278776+379658194+385135560+390698792
686+396356110+402121471+408010142+413985130+420026335+426129693+432332059
693+438557101+444892850+451420612+457955374+464463396+471005702+477714860
700+484492087+491271437+498022422+504768889+511533514+518300262+525045194
707+531779059+538625033+545509942+552202839+558857840+565506789+572139070
714+578703689+585212750+591648458+597996809+604293669+610456107+616525633
721+622632016+628686320+634538089+640159452+645785423+651439624+656983704
728+662279719+667503012+672599471+677571176+682468622+687245289+691878003
735+696412701+701000924+705335028+709441393+713455207+717430628+721439881
742+725404145+729141166+732539107+735900326+739337654+742604290+745807283
749+748910680+751875228+754760416+757638602+760477853+763194832+765774951
756+768282168+770752166+773169497+775497485+777773439+780018045+782156054
763+784272292+786339657+788297805+790171578+792024121+793909096+795846014
770+797561697+799219745+800904081+802457608+804024235+805613084+807171039
777+808601888+809963359+811354732+812836984+814104052+815420987+816846236
784+818169855+819471704+820694327+821839169+823087990+824349548+825542811
791+826630380+827703585+828821055+829959755+831052021+832127033+833178918
798+834199909+835186029+836179285+837177059+838180885+839218588+840213290
805+841191912+842196732+843223865+844181258+845063310+845930727+846881525
812+847805584+848669930+849534817+850451739+851377334+852271490+853141979
819+853864857+854586289+855436633+856306037+857100191+857905456+858832586
826+859705514+860532460+861321645+862086981+862903990+863711785+864449839
833+865095027+865865512+866742054+867633681+868417807+869154868+869852000
840+870543621+871375264+872202753+872992841+873765766+874573651+875228324
847+875807746+876524210+877326404+878027149+878615244+879254830+879990897
854+880845216+881719227+882395130+883101386+883796620+884434581+885063689
861+885765879+886514051+887240543+887847337+888497042+889248285+890071166
868+890794134+891434805+892093544+892850388+893516715+894112759+894761019
875+895569807+896162418+896850516+897647200+898308558+899051671+899778162
882+900468248+901210367+901932793+902571386+903175109+903906569+904527005
889+905119164+905777451+906510447+907108659+907722410+908459561+909180993
896+909739728+910263051+910886558+911576643+912332404+913053384+913656023
903+914168867+914673039+915263573+915953206+916488183+917191006+917957336
910+918620681+919390083+920035722+920614151+921273521+922019706+922902300
917+923719670+924282471+924863429+925442399+926028958+926654904+927380854
924+928071391+928743860+929465835+930186273+931052697+931930683+932623298
931+933256832+933788828+934354158+935088689+935848514+936579071+937295986
938+938006849+938547427+939097489+939760383+940520209+941103245+941689713
945+942257482+942784419+943492752+944112194+944638498+945241769+946279472
952+947224669+948111328+948947399+949317690+949389870+949510741+949834599
959+950078510+950366053+950785759+951394631+952189779+952949153+953540680
966+954020099+954604671+955070991+955521593+956027300+956583506+957252452
973+957801612+958147151+958419427+959035346+959655239+960151732+960574691
980+960995481+961435513+961872022+962331748+963061762+963651393+964087270
987+964524411+965152796+965734296+966341542+966951860+967360455+967741949
994+968229950+968885707+969636047+970055753+970440228+970973759+971636563
1001+969021122+969728372+970613585+971334024+972044796+972685377+973230471
1008+973826064+974367183+974964312+975641840+976253603+976884066+977450390
1015+977941462+978445724+978936707+979400949+979856158+980351296+980717523
1022+981004524+981302546+981530376+981774467+982004375+982260481+982495448
1029+982761671+983100074+983386985+983647156+983935692+984137777+984250517
1036+984469224+984695970+984911785+985181622+985429146+985595276+985854995
1043+986216163+986518792+986781493+987109868+987419996+987774750+988241522
1050+988790771+989320689+989938505+990450264+990861479+991400521+991977504
1057+992543376+993187480+993784066+994252916+994856639+995491167+996238887
1064+996964836+997716080+998403184+999032111+999762668+1000559893+1001282771
1071+1002037086+1002762041+1003417798+1004114930+1004817211+1005542166
1077+1006286815+1007037517+1007765996+1008465295+1009161433+1009900933
1083+1010661933+1011468734+1012195767+1012902475+1013556154+1014124555
1089+1014728188+1015323329+1015914495+1016509546+1017107668+1017706423
1095+1018284851+1018878999+1019513527+1020023751+1020519882+1021067506
1101+1021531839+1022042063+1022625460+1023154474+1023618265+1024132103
1107+1024700956+1025198533+1025674429+1026145266+1026581323+1026946466
1113+1027339161+1027801326+1028205585+1028613276+1028996215+1029298845
1119+1029632279+1029997512+1030341968+1030732585+1031014889+1031204416
1125+1031445887+1031641467+1031888449+1032204268+1032486571+1032651256
1131+1032733643+1032805371+1032890197+1032935727+1032961473+1032966532
1137+1032928591+1032947291+1032934734+1032894263+1032848733+1032763003
1143+1032613404+1032513943+1032414934+1032251695+1032086558+1031929372
1149+1031786368+1031600996+1031412011+1031212456+1030936115+1030689133
1155+1030468801+1030188485+1029922171+1029649353+1029383039+1029110853
1161+1028870827+1028584368+1028250031+1027847308+1027472951+1027151170
1167+1026859652+1026627756+1026383304+1026126114+1025889702+1025700717
1173+1025528896+1025360146+1025154087+1024901956+1024722185+1024577646
1179+1024440152+1024348280+1024240688+1024136168+1023989551+1023889457
1185+1023903731+1023926496+1023968954+1024048722+1024114397+1024255865
1191+1024420549+1024588847+1024854981+1025068718+1025273784+1025492580
1197+1025680572+1025913370+1026165501+1026448889+1026824330+1027255690
1203+1027648205+1028040268+1028349944+1028639564+1028967850+1029335702
1209+1029718641+1030079358+1030493011+1030948310+1031431795+1031944458
1215+1032493708+1033092824+1033666735+1034255824+1034868581+1035484409
1221+1036099785+1036743347+1037409312+1038041311+1038697520+1039474600
1227+1040235961+1040969951+1041728782+1042405679+1043076612+1043807711
1233+1044529595+1045246962+1045968846+1046667062+1047370878+1048053375
1239+1048677786+1049338060+1050037269+1050660866+1051270552+1051878340
1245+1052353604+1052830132+1053266551+1053648496+1054026467+1054297659
1251+1054533619+1054781685+1054960553+1055124243+1055261014+1055355597
1257+1055431390+1055460117+1055527328+1055629409+1055655155+1055678371
1263+1055670331+1055605650+1055488483+1055405553+1055319191+1055291367
1269+1055329851+1055363637+1055464092+1055556145+1055605198+1055727876
1275+1055865369+1056041075+1056248218+1056475055+1056734774+1057034874
1281+1057361171+1057701742+1058070499+1058460574+1058827795+1059293573
1287+1059879680+1060413663+1060984594+1061548298+1062051024+1062537037
1293+1063044732+1063574108+1064104206+1064630059+1065170636+1065693507
1299+1066176901+1066627593+1067075214+1067472787+1067918330+1068418075
1305+1068845008+1069289557+1069656778+1069887680+1070204492+1070525731
1311+1070840465+1071230993+1071563433+1071870038+1072135448+1072351625
1317+1072565814+1072803762+1073000697+1073184624+1073344701+1073479123
1323+1073571538+1073648866+1073727279+1073741823+1073691415+1073653925
1329+1073609027+1073521671+1073409382+1073285620+1073165472+1072953722
1335+1072713335+1072411247+1071987837+1071590264+1071173538+1070740462
1341+1070355987+1069953355+1069518381+1069104095+1068654036+1068184554
1347+1067720853+1067270252+1066799414+1066287113+1065822328+1065396479
1353+1064930249+1064456250+1063991917+1063498947+1063017992+1062576424
1359+1062100980+1061615599+1061100677+1060578890+1060007959+1059382555
1365+1058774767+1058201939+1057539587+1056844443+1056107292+1055325695
1371+1054469932+1053600979+1052743679+1051913029+1051108306+1050325264
1377+1049623073+1048840483+1048053375+1047189030+1046348352+1045306585
1383+1044184055+1042898377+1041411970+1039949502+1038432832+1036807577
1389+1035108155+1033354982+1031462600+1029575186+1027629053+1025712370
1395+1023793158+1021824260+1019911642+1017872101+1015778538+1013578377
1401+1011156981+1008726460+1006214094+1003517892+1000793776+997989350+995114822
1408+992128006+989091775+985954005+982912173+979784882+976782527+973836182
1415+971015676+968271956+965574128+963030415+960442347+957855091+955279670
1422+952714818+950189173+947643021+945177088+942736992+940407468+938148678
1429+935960713+933816110+931821646+929896291+928116379+926486155+924993785
1436+923602955+922279335+920995644+919816474+918749502+917742153+916846460
1443+916082027+915385889+914750819+914236620+913804538+913545360+913391787
1450+913397930+913575172+913870755+914342586+914827064+915476317+916058359
1457+916653952+917251532+917884614+918463585+919019249+919565427+920069056
1464+920590392+921130969+921646252+922157561+922645562+923114954+923570072
1471+924012634+924426468+924805884+925186745+925590914+925918295+926215866
1478+926468991+926652285+926810465+926947416+927082289+927225293+927368748
1485+927583931+927798663+928020983+928267061+928498414+928694898+928999063
1492+929333942+929712365+930157004+930641392+931184047+931692284+932254000
1499+932776419+933265414+933743840+934202572+934708821+935188331+935720687
1506+936337058+936897328+937462658+938001790+938508943+939036421+939546194
1513+940072046+940607565+941160699+941729642+942299037+942876924+943472065
1520+944066664+944684570+945338249+945982895+946628535+947280678+947923427
1527+948600323+949295016+950013919+950747005+951516948+952368646+953153676
1534+953923168+954692117+955462512+956210685+957020467+957811730+958553307
1541+959265706+959897704+960521573+961078772+961579059+962045289+962438798
1548+962800056+963061762+963234939+963403688+963482101+963539194+963617426
1555+963713003+963809935+963921682+963998378+964033248+964170651+964309589
1562+964564250+964947189+965280533+965653444+965982814+966298632+966633602
1569+966950324+967326217+967720268+968154157+968658870+969103419+969554111
1576+969996131+970414482+970823167+971253624+971623916+971904774+972268562
1583+972635330+973057114+973529036+974037272+974576856+975137579+975777165
1590+976347554+976920924+977461050+977938933+978455842+978960465+979499055
1597+980045143+980655913+981298029+981978087+982745862+983455731+984194870
1604+984886943+985529601+986169188+986797663+987407348+987961657+988588597
1611+989233243+989888006+990621092+991273687+991897104+992493871+993065705
1618+993597158+994082721+994571715+994993048+995472467+995979710+996501588
1625+997057251+997611018+998208146+998733095+999244765+999709098+1000100077
1632+1000505329+1000891792+1001260006+1001591001+1001959215+1002292740
1638+1002740360+1003315266+1003776437+1004292262+1004654514+1004873762
1644+1005107193+1005280911+1005464928+1005606848+1005786709+1005955459
1650+1006169648+1006438853+1006666773+1006945644+1007088106+1007210332
1656+1007160827+1006966331+1006725854+1006344902+1005980211+1005563396
1662+1005149561+1004745483+1004206984+1003647616+1003020676+1002250733
1668+1001377263+1000394215+999216038+997946982+996600055+995112202+993575026
1675+992031526+990404283+988837656+987341222+985686245+984061984+982463559
1682+980734145+979073658+977439820+975800472+974317137+972886919+971513704
1689+970276086+969133321+968126875+967351963+966714906+966133857+965568076
1696+964992719+964365147+963696290+963090580+962401488+961704266+961135413
1703+960492845+959885057+959371220+958787280+958175337+957586338+956876108
1710+956003542+955022932+953863003+952612647+951246659+949775971+948095700
1717+946530067+944902824+943344148+941881680+940348388+938737857+937265091
1724+935812199+934496077+933253309+932177213+931159294+930472190+930029719
1731+929892768+929927096+930148874+930646993+931324431+932130238+933019878
1738+933890367+934662930+935311008+935938490+936540135+937060116+937605120
1745+938086075+938478590+938915641+939387472+939821993+940247391+940598983
1752+940864755+941105232+941260793+941423941+941545716+941552311+941558815
1759+941544632+941576521+941685648+941902909+942190904+942575740+943113427
1766+943673155+944280311+944963441+945693455+946397181+947142372+947830470
1773+948536184+949238826+949871005+950456480+950957580+951376474+951775041
1780+952169543+952501532+952831444+953225494+953622074+954015583+954380364
1787+954648123+954851743+955044703+955205413+955346339+955564593+955773272
1794+955883303+955998483+956186474+956404729+956821996+957153985+957444961
1801+955882309+956394611+956831120+957202406+957700525+958156817+958715914
1808+959465712+960122553+960770180+961436507+962057394+962660666+963244153
1815+963786176+964351054+964965798+965483791+965916687+966409205+966898290
1822+967305891+967819729+968411256+968993841+969600635+970205803+970838344
1829+971472330+972123028+972751594+973380521+974038356+974646506+975241647
1836+975800472+976336443+976842602+977295823+977758530+978230361+978680059
1843+979028670+979291822+979605111+979842517+980124550+980559975+980813009
1850+980971731+981095493+981188902+981180320+981123227+981069657+980866037
1857+980569550+980162853+979659133+979074651+978366770+977581740+976816404
1864+975873645+974934501+974035827+972891978+971692120+970250340+968677570
1871+966820961+964615832+962206450+959537982+956525961+953337151+949942191
1878+946406215+942730487+938747433+934638539+930139750+925269675+920133828
1885+914636633+908909711+902739684+896154830+889195709+881639369+874128018
1892+866338337+858429953+850247577+842004224+833659873+825138100+816685165
1899+808242618+799780016+791207745+782781007+774362309+766236574+758313556
1906+750465246+742966000+735697158+728666309+721964288+715524967+709362529
1913+703541610+698025264+692717641+687716668+682865202+678269843+673914509
1920+669689532+665819715+662104374+658463924+655184640+652220137+649430436
1927+646934195+644744649+642715813+640905637+639321305+637922931+636778134
1934+635862251+635128171+634585064+634279905+634159667+634220328+634524945
1941+634949349+635540921+636331552+637210623+638243221+639446150+640747502
1948+642181243+643721626+645354425+647084742+648853995+650692943+652586409
1955+654430371+656290593+658238081+660252825+662332295+664373282+666450133
1962+668456340+670484228+672514058+674598542+676759858+678822525+680861073
1969+682952107+684988035+687027486+689128140+691163120+693112189+695098657
1976+697229574+699304934+701375823+703461752+705426992+707378093+709381725
1983+711415169+713475307+715577543+717652406+719743394+721846082+723874466
1990+725977605+728050436+730052081+732136520+734162872+736125627+738072076
1997+739933743+741648478+743407071+745129800+746890967+748606108+750324320
2004+752019768+753539374+754930204+756244248+757427394+758557556+759649281
2011+760730435+761682679+762601227+763355452+763981849+764502824+764927679
2018+765189386+765304024+765340430+765187760+764817016+764404718+763922859
2025+763226179+762423805+761444279+760159505+758893520+757477440+756101245
2032+754666962+753264026+751882817+750433402+749081507+747824556+746699995
2039+745701227+744806483+744002709+743358063+742854433+742453246+742162722
2046+742050613+742097092+742151114+742357263+742639160+742965503+743353501
2053+743827951+744346216+744989371+745781040+746521624+747336013+748174161
2060+748979426+749876113+750841094+751846908+752899787+753862690+754847320
2067+755838002+756829678+757825012+758799569+759781173+760735946+761698940
2074+762584515+763420675+764239039+765061017+765766279+766458442+767087369
2081+767629934+768085233+768540351+768982913+769377506+769736234+770053498
2088+770327220+770575828+770706636+770924439+771223003+771417408+771619041
2095+771832779+771858073+771815072+771916069+772015621+772201535+772564780
2102+772820886+773006348+773274107+773565083+773858589+774236017+774575504
2109+774887258+775161973+775585835+775990997+776403295+776771690+777038817
2116+777394474+777716346+778062427+778375536+778676720+778919185+779153158
2123+779340065+779459310+779571509+779643688+779693193+779747215+779769980
2130+779635106+779460846+779138523+778704544+778263427+777797197+777206122
2137+776555965+775794604+774866480+773949558+772974459+771984816+770890020
2144+769883665+768942442+767904739+766810034+765867366+764803375+763525737
2151+762294623+761014365+759693817+758291333+756954569+755630949+754252224
2158+752802313+751487275+750165146+748911764+747842217+746653516+745361198
2165+744199689+743021602+741971749+741083148+740164148+739385171+738807194
2172+738215125+737782139+737504759+737123310+736826327+736564665+736442349
2179+736409060+736404949+736482730+736664126+736910160+737161794+737565465
2186+737943300+738213137+738638445+739149256+739772176+740446542+741098776
2193+741712165+742329981+742906919+743482276+744136046+744701376+745243534
2200+745773452+746298853+746763592+747256697+747704318+748248915+748822330
2207+749420994+750105524+750821446+751586737+752331973+753125630+753864768
2214+754617457+755208488+755849159+756541819+757105613+757753782+758360983
2221+758886925+759349723+759736185+760067090+760301515+760501611+760695114
2228+760731971+760762234+760510103+760032762+759459302+758705619+757812456
2235+756784826+755657689+754393692+752943736+751440752+749635229+747510816
2242+745320321+742971601+740422919+737883678+735030289+731878878+728771868
2249+725579038+722249708+718886637+715315836+711565219+707933802+704483285
2256+701211590+697778779+694404506+691063659+687514042+684287335+681297040
2263+678369936+675557922+672868766+670313445+667868787+665482712+663301251
2270+661355751+659415761+657714261+655888909+653959579+652233326+650579795
2277+648858512+647307604+645880864+644323859+642856242+641666456+640426670
2284+639394613+638572590+637550652+636573565+635657095+634635563+633700483
2291+632860257+631811534+630711679+629835183+628814148+627646134+626497271
2298+625154455+623391300+621999476+620759192+619356256+618089233+616627172
2305+614817538+613323678+611816584+610597574+609431051+608710703+608227128
2312+608195329+608639427+609511903+611025501+612560329+614463913+616394282
2319+618453472+620225254+621808006+623142286+624203702+625222162+626139084
2326+626909028+627473816+627612754+627671925+627766327+627813302+628037655
2333+628349363+628475203+628633293+628715590+628446340+628489837+628471589
2340+628075551+627822426+627392512+626839830+626268899+625481340+624780595
2347+624279449+623652510+623348841+623400424+623462576+624080933+625144382
2354+626180007+627288941+628602488+629746788+631037570+632274286+633070924
2361+633841951+634253166+634499696+634559815+634308678+634159667+633894979
2368+633576224+633489817+633263477+633078512+633301825+633408920+633407971
2375+633420619+633044681+632603655+632190408+631521009+631077996+630520706
2382+629819509+629577541+629138006+628729773+628533741+627916422+627244495
2389+626851935+626558429+626089625+625716758+625292896+624619975+624460349
2396+624279991+623815659+623756036+623440263+622784054+622275365+621415988
2403+620647038+620315140+619805909+619342119+618599954+617457189+616591759
2410+615792592+614703849+613544462+612392528+611320994+610551096+609407292
2417+608185212+607367841+605921454+604672543+604105722+602672975+601215973
2424+600145478+598780394+597826072+596969270+596021046+594789299+593068106
2431+591386751+589603406+587687671+585449659+582856938+580513277+578490990
2438+576682847+575394639+574038634+571796602+569808101+567902439+565367353
2445+563408664+561310087+558870984+557007239+555315360+553614312+551914348
2452+550281007+548255694+546581927+545032465+542952543+541258134+539192847
2459+537592344+536792138+535994415+535337123+533802340+531555249+529588971
2466+528091046+526941731+526437515+525745352+524203477+523100642+522358522
2473+521405691+520380184+519421301+517920846+516227386+516933642+515676194
2480+515009326+514706244+514042357+513623554+513012288+512640460+511980141
2487+511226368+511396111+510787871+509399570+508726694+508417967+508262361
2494+507856702+508025904+508428582+507571779+507230214+506648217+505650489
##END=
