##TITLE= TSR_2002_23_FORS_00012.asd.sco | Av. of  3
##JCAMP-DX=4.24
##DATA TYPE=INFRARED SPECTRUM
##SAMPLING PROCEDURE=
##ORIGIN= ASD Instrument
##XUNITS=NANOMETERS
##YUNITS=REFLECTANCE
##RESOLUTION=1
##FIRSTX=350
##LASTX=2500
##DELTAX=1
##MAXY=0.87857229
##MINY=0.36044565
##XFACTOR=1
##YFACTOR=8.182342e-010
##NPOINTS=2151
##FIRSTY=0.41894364
##XYDATA=(X++(Y..Y))
350+512009449+511332423+509579434+502311388+492680053+493323314+495678372
357+495117425+492107305+496581109+499702901+499793302+497917350+494440764
364+492292624+492770089+495521936+497919389+497373485+494504686+493139999
371+498188662+501789523+500709115+505359788+508840052+510265929+510747365
378+511725534+514009312+517765406+522229047+522677557+525130409+530771816
385+534657429+537533514+540867578+545170741+548735688+552254670+556320758
392+560933150+563603956+567148106+571813493+575940626+578071246+580737208
399+585361729+591380803+594896106+597694829+601563287+605016307+607980389
406+611549051+616554918+620363133+623396127+626030583+628597948+633227422
413+637341151+640050274+644239324+647731827+650772542+653926896+656430594
420+659906780+663712591+666290883+669340995+672282640+675283800+679582556
427+682816312+685357161+688045450+691272285+694500432+697583033+700560227
434+703558983+706434266+709228035+712144986+715221832+718175861+720916234
441+723928831+726373889+728677699+731485382+734221384+737022074+739821160
448+742383208+744898343+747463232+750103879+752771043+755240140+757642510
455+760154367+762521699+765039748+767639675+769981219+772346074+774798125
462+777324770+779845951+782252037+784664897+787202905+789565283+791777381
469+793932806+796175863+798745996+801131685+803162034+805601045+807888101
476+810022765+812168865+814257927+816561664+819089839+821583412+823608151
483+825572137+827762163+829824345+832002279+834296984+836587755+838637626
490+840650054+842702111+844714540+846785317+848884942+850968322+853031670
497+855046939+857053322+859093504+861082331+862974200+864805317+866698424
504+868796519+870787313+872498817+874469214+876341560+878105586+879921259
511+881741448+883531844+885322313+887232976+888893853+890483850+892208248
518+893848436+895458831+897051233+898621781+900349748+901994380+903471904
525+905050246+906454488+907799507+909253502+910641427+912034232+913454864
532+914883582+916462507+918162575+919907806+921574801+923370442+925195949
539+926865786+928474213+930089853+931694929+933173692+934513612+935607022
546+936405554+937088261+937477693+937601968+937616974+937647205+937647132
553+937710726+938179268+938910928+939978623+941457386+943242246+945188239
560+947072751+948654663+950225867+951758462+953149301+954255677+955021647
567+955461197+955621676+955459449+955222482+955168285+955527923+956132978
574+956949794+957889573+958593115+959441327+960502904+961647233+962783040
581+963851173+964763270+965341372+966140632+966979448+967530232+967931101
588+968532003+969342627+970089439+970955936+971833796+972517742+972640487
595+972626136+972750848+973180636+973779426+974567686+975413495+975991961
602+976595704+977240678+977858990+978317698+978925010+979762660+980729101
609+981480647+982233869+983114498+983963221+984620796+985133993+985631382
616+986226165+986779062+987280093+987841003+988415899+988921447+989336957
623+989786705+990387607+990992516+991389742+991815451+992316191+992852697
630+993307763+993854760+994394617+994832127+995334396+995857937+996352849
637+996778995+997269827+997801891+998328709+998791423+999355247+999889350
644+1000259988+1000784766+1001296870+1001713619+1002058615+1002589877
650+1003206659+1003737047+1003958206+1004415311+1005027723+1005501000
656+1005947980+1006413608+1006919519+1007461708+1007913131+1008336436
662+1008788952+1009180934+1009673005+1010196909+1010595738+1011028805
668+1011501353+1011992623+1012469688+1012912588+1013307702+1013692617
674+1014292645+1014755068+1015079813+1015490807+1015973918+1016479466
680+1016952889+1017340791+1017817346+1018300165+1018684279+1019131623
686+1019514499+1019862409+1020315071+1020826300+1021303802+1021694472
692+1022015429+1022365816+1022822848+1023386308+1023823016+1024122848
698+1024418164+1024918903+1025408571+1025854603+1026248916+1026571184
704+1026897168+1027231164+1027549790+1027836073+1028261782+1028792315
710+1029210157+1029535703+1029861978+1030243761+1030627074+1031023936
716+1031347734+1031541211+1031839878+1032203231+1032604099+1033026603
722+1033414796+1033672669+1033835187+1034195335+1034669996+1035091990
728+1035346585+1035702726+1036006929+1036242001+1036508470+1036823381
734+1037116730+1037397403+1037840595+1038053595+1038157108+1038381982
740+1038692013+1039109199+1039578906+1039981741+1040132896+1040317049
746+1040633198+1040819391+1041065828+1041348905+1041617413+1041912000
752+1042213435+1042503870+1042767862+1042982100+1043253085+1043582274
758+1043844590+1044031949+1044260101+1044593005+1044919716+1045224793
764+1045506268+1045769095+1045978015+1046237928+1046574838+1046929304
770+1047147986+1047348093+1047589284+1047764404+1047957445+1048230397
776+1048561625+1048679343+1048816657+1049066007+1049402043+1049557350
782+1049789872+1050153298+1050443733+1050632330+1050750485+1050889839
788+1051236073+1051524978+1051717145+1051864292+1052034095+1052296120
794+1052595588+1052817548+1053000900+1053152419+1053296143+1053470972
800+1053662920+1053873079+1054106621+1054379428+1054593375+1054788018
806+1055032487+1055329405+1055551074+1055660269+1055702592+1055861104
812+1056090057+1056319448+1056490489+1056718277+1056930840+1057091391
818+1057271902+1057368787+1057479657+1057686976+1057883658+1057992926
824+1058117201+1058375074+1058583995+1058762903+1058917700+1059052537
830+1059263060+1059429366+1059503086+1059548760+1059646081+1059858280
836+1060154907+1060367616+1060508062+1060596059+1060686970+1060922407
842+1061118798+1061270681+1061431523+1061579983+1061637749+1061673225
848+1061815783+1061978010+1062067173+1062074530+1062080139+1062222334
854+1062459081+1062693717+1062807356+1062940153+1063018025+1063015475
860+1063067268+1063135233+1063247342+1063395146+1063434701+1063519857
866+1063699567+1063932162+1064033199+1064070714+1064124766+1064245398
872+1064342355+1064309793+1064300760+1064536343+1064548071+1064619095
878+1064794580+1064887822+1064966131+1065004739+1065032857+1065130324
884+1065257003+1065289929+1065244765+1065311127+1065276015+1065199892
890+1065168933+1065212931+1065087783+1064994176+1065076929+1065175489
896+1065108325+1064957972+1064856935+1064851982+1064863054+1064836174
902+1064747740+1064619823+1064439312+1064338786+1064379433+1064240080
908+1064279198+1064384678+1064380745+1064536707+1064552514+1064491033
914+1064535468+1064678027+1065024771+1065282280+1065174250+1065166893
920+1065137900+1065102935+1065133093+1065265526+1065456526+1065592165
926+1065608992+1065737710+1065984874+1066210185+1066277422+1066352817
932+1066316540+1066291335+1066428940+1066560135+1066652649+1066749169
938+1066875920+1066870165+1066776049+1066747931+1066870092+1066849040
944+1066851080+1066780930+1066573174+1066538136+1066491296+1066359664
950+1066251416+1066629411+1066971712+1067281232+1067575309+1067551707
956+1067185440+1066741083+1066378458+1065915307+1065424474+1065001971
962+1064751747+1064743224+1064615380+1064425108+1064279198+1064212035
968+1063985922+1063788730+1063702408+1063643694+1063625337+1063494653
974+1063212304+1062906353+1063024071+1062978105+1062767436+1062684320
980+1062588164+1062420328+1062180812+1061971017+1062080649+1062111536
986+1062007585+1061892781+1061991414+1062016254+1062024048+1062006857
992+1061810174+1061685463+1061647146+1061756341+1062048816+1061956302
998+1061824306+1061794221+1061804784+1061538752+1061679344+1061930661
1004+1062065133+1062214175+1062303775+1062300133+1062342092+1062341727
1010+1062413917+1062564562+1062647314+1062759642+1062828117+1062837077
1016+1062835838+1062819084+1062809760+1062732762+1062641559+1062459081
1022+1062182050+1061952223+1061667980+1061414915+1061194193+1060963200
1028+1060705618+1060478705+1060295863+1060081989+1059838758+1059664001
1034+1059388573+1059030537+1058779949+1058546552+1058280520+1058040640
1040+1057827932+1057564304+1057358588+1057258790+1057108146+1056859961
1046+1056738528+1056659563+1056616002+1056707641+1056872199+1057005871
1052+1057220983+1057338701+1057327702+1057498379+1057739060+1057959928
1058+1058306162+1058566876+1058660628+1058926660+1059231445+1059662763
1064+1060088472+1060493857+1060791649+1061051999+1061445146+1061930661
1070+1062318927+1062748278+1063155266+1063453058+1063845768+1064304840
1076+1064750217+1065217885+1065693711+1066103467+1066463979+1066806644
1082+1067199354+1067650704+1068132286+1068516400+1068872104+1069183300
1088+1069381585+1069652206+1069946283+1070217196+1070506829+1070773735
1094+1071032773+1071250363+1071460886+1071709435+1071854834+1072003585
1100+1072211704+1072336416+1072518893+1072758045+1072920126+1073004044
1106+1073145874+1073315386+1073420429+1073518625+1073605019+1073624105
1112+1073595185+1073610701+1073710062+1073735340+1073741823+1073722300
1118+1073572749+1073442501+1073337385+1073206555+1073105591+1072892882
1124+1072602811+1072329058+1071993386+1071677310+1071384398+1071022211
1130+1070514988+1069895801+1069254543+1068591795+1067887816+1067146322
1136+1066348738+1065489525+1064643061+1063778895+1062901108+1062021499
1142+1061104884+1060148788+1059221975+1058269594+1057255585+1056203259
1148+1055155960+1054115946+1053016708+1051942529+1050838483+1049630996
1154+1048460953+1047277942+1046015531+1044739570+1043418809+1042123034
1160+1040825875+1039533305+1038206862+1036853903+1035415788+1034018539
1166+1032677382+1031366455+1030126042+1028907921+1027705752+1026552827
1172+1025480688+1024457719+1023480060+1022521778+1021583601+1020749375
1178+1019990835+1019274109+1018637440+1018038941+1017479343+1016934531
1184+1016488134+1016167105+1015900199+1015701039+1015569043+1015469245
1190+1015463126+1015504648+1015573997+1015738919+1015890146+1016063227
1196+1016253499+1016440858+1016666533+1016911804+1017203113+1017588101
1202+1018035372+1018450518+1018852479+1019175185+1019502698+1019901090
1208+1020319150+1020728541+1021110980+1021495604+1021889552+1022309579
1214+1022729242+1023149633+1023594427+1023982767+1024343279+1024715592
1220+1025063137+1025401213+1025768282+1026134548+1026459148+1026828183
1226+1027291043+1027751426+1028233736+1028745403+1029231355+1029747975
1232+1030329718+1030944097+1031581640+1032260269+1032915732+1033617234
1238+1034271459+1034886639+1035490018+1036107529+1036652995+1037162331
1244+1037649521+1038032543+1038381618+1038671616+1038900132+1039109563
1250+1039212712+1039244473+1039267273+1039195520+1039061121+1038899404
1256+1038667901+1038425180+1038134672+1037867912+1037609529+1037301611
1262+1036987138+1036647386+1036266040+1035835888+1035450463+1035059355
1268+1034718439+1034483366+1034263810+1034098378+1033949701+1033768024
1274+1033652273+1033562600+1033520277+1033530839+1033549196+1033585837
1280+1033693867+1033833148+1034017738+1034269055+1034533484+1034795363
1286+1035151068+1035619610+1036049252+1036530469+1036994495+1037406363
1292+1037807960+1038216550+1038622737+1039015446+1039391111+1039767139
1298+1040096692+1040375325+1040613676+1040817352+1040943156+1041106621
1304+1041300973+1041403903+1041496490+1041522132+1041405142+1041363183
1310+1041324575+1041277225+1041273947+1041238981+1041199062+1041107859
1316+1040985989+1040856033+1040744433+1040601802+1040424205+1040209893
1322+1039937889+1039590270+1039227281+1038849286+1038384823+1037848389
1328+1037300373+1036704424+1036077443+1035426861+1034740365+1034057220
1334+1033254318+1032389059+1031461882+1030423398+1029359708+1028246338
1340+1027104413+1025977567+1024804828+1023606665+1022417463+1021157893
1346+1019858330+1018550244+1017221834+1015900199+1014528956+1013217592
1352+1011946147+1010663776+1009381332+1008117973+1006851846+1005602036
1358+1004391345+1003165502+1001938930+1000716292+999511719+998270360+996996147
1365+995772343+994571777+993358245+992152288+990978311+989846220+988694897
1372+987597408+986547559+985520146+984474887+983359113+982288066+981027257
1379+979674663+978150663+976534951+974701722+972697452+970530154+968133101
1386+965754479+963298785+960713573+958027324+955303851+952434760+949548914
1393+946614116+943685802+940700886+937694408+934728724+931680652+928596011
1400+925431386+922085157+918776079+915427009+911907189+908382562+904816340
1407+901246402+897597938+893968558+890326213+886775434+883195808+879703305
1414+876281317+872969690+869698783+866519662+863475304+860475674+857507586
1421+854625310+851835911+849121981+846456056+843889565+841408667+839033177
1428+836762584+834549102+832421432+830379136+828404150+826506599+824688886
1435+822973376+821345571+819761692+818217660+816753102+815355708+813993862
1442+812724166+811562208+810436235+809355063+808348485+807387362+806559546
1449+805807999+805163973+804632274+804214359+803928368+803652065+803509507
1456+803324625+803131949+802982397+802889519+802770635+802658963+802542410
1463+802406335+802299616+802213294+802126463+802053544+801979898+801917105
1470+801842220+801776950+801685311+801573274+801448563+801337838+801164684
1477+800957730+800714572+800421223+800108279+799770568+799420618+799072781
1484+798723269+798426642+798139922+797878334+797637580+797426110+797211434
1491+797106318+797064359+797048843+797102676+797191037+797316550+797459983
1498+797675460+797855534+798026575+798212403+798386795+798623762+798883674
1505+799169738+799529012+799838678+800135669+800449779+800749101+801077488
1512+801429842+801783433+802148899+802516769+802890684+803268825+803628536
1519+804039166+804450160+804929265+805454845+806032072+806649219+807334476
1526+808062056+808876396+809766931+810731624+811771638+812883406+814125494
1533+815341503+816580386+817877035+819203478+820518629+821872681+823194680
1540+824443251+825624586+826713990+827737687+828643375+829473667+830207221
1547+830817520+831335306+831699096+831930453+832113077+832169241+832176234
1554+832154963+832113878+832084886+832021364+832005484+831966439+832083647
1561+832259642+832550514+832991666+833416646+833900194+834385855+834912091
1568+835442624+835981098+836575517+837189822+837849438+838602150+839254845
1575+839903388+840520098+841077803+841642064+842216450+842741229+843198188
1582+843692809+844184953+844691375+845198088+845751276+846306213+846908280
1589+847582028+848216366+848850632+849517969+850164545+850876974+851636315
1596+852421807+853240663+854107524+855013576+855955759+856973847+857944294
1603+858946794+859912287+860836259+861761396+862691851+863592585+864461486
1610+865338181+866211234+867056533+867900229+868712966+869485783+870262243
1617+871045696+871784130+872490221+873194200+873847988+874519841+875199708
1624+875889919+876592513+877281412+877994715+878649377+879267762+879871141
1631+880439409+881001703+881552779+882068962+882547993+883029939+883482528
1638+883965712+884503165+884950801+885399747+885735856+885958181+886183929
1645+886350235+886510641+886656040+886768513+886845948+886909105+886956309
1652+886969785+886990546+886903350+886789347+886530600+886148963+885701619
1659+885157755+884534926+883834153+883058057+882231553+881191902+880028779
1666+878696654+877189336+875499904+873649192+871550369+869270306+866863856
1673+864289207+861627725+858937105+856149747+853404347+850756342+848019611
1680+845371751+842845908+840344103+838040002+835939503+834010555+832373354
1687+830924239+829683754+828688976+827889716+827284661+826938063+826738830
1694+826597510+826496473+826392086+826223959+825997336+825806773+825529013
1701+825257664+825052312+824761440+824468164+824158426+823782470+823309922
1708+822727377+822001763+821057832+819942058+818611608+817143335+815496736
1715+813705540+811668562+809693212+807555635+805525650+803525387+801576917
1722+799567693+797870175+796284257+794984694+793940236+793101785+792489883
1729+792177376+792075975+792192528+792438163+792757517+793225185+793743407
1736+794297834+794894293+795488202+796076502+796621604+797210997+797875056
1743+798575320+799337939+800104200+800827337+801564679+802308212+802979483
1750+803588544+804068887+804453438+804796467+805020467+805273095+805521207
1757+805685328+805922075+806166472+806404385+806702177+807081411+807482789
1764+807938583+808513407+809053192+809587294+810173846+810764186+811376525
1771+811995711+812563177+813182801+813773140+814296608+814780156+815190786
1778+815564701+815895565+816186947+816420635+816633708+816928295+817279775
1785+817609473+817910034+818198065+818469414+818779080+819118394+819400306
1792+819683893+819982851+820201606+820399163+820676558+820988191+821395689
1799+821743599+822022597+820328357+820891671+821392775+821840483+822373348
1806+822845459+823435434+824202060+824871364+825558661+826239402+826846350
1813+827397572+827936482+828416024+828926452+829476071+829940825+830327853
1820+830773594+831216422+831587424+832049847+832591307+833105013+833626004
1827+834146703+834656767+835206678+835783104+836347365+836933989+837589890
1834+838160197+838722782+839234449+839691554+840140063+840537727+840947118
1841+841391548+841801304+842066097+842244641+842419325+842439357+842545202
1848+842815313+842857272+842811670+842697230+842463761+842119493+841739094
1855+841331232+840796838+840184863+839461362+838649864+837747891+836766080
1862+835636102+834482812+833131966+831698732+830196294+828486903+826661396
1869+824611451+822435339+819970977+817151494+814100216+810807820+807210201
1876+803416264+799447134+795288168+790954883+786318051+781499543+776350680
1883+770861629+765143188+759127829+752935601+746415058+739501806+732429677
1890+724912609+717532563+710008647+702486698+694829620+687252673+679702751
1897+672089964+664634887+657284052+650013201+642781760+635716115+628750778
1904+622094961+615637138+609290915+603260477+597399040+591736471+586317898
1911+581070002+576019626+571210114+566608394+562162199+557907915+553733032
1918+549733780+545853922+542025310+538466045+535008217+531604549+528412316
1925+525438837+522544760+519830829+517302582+514856249+512571233+510415408
1932+508386225+506568476+504933678+503446320+502114996+500964511+499948973
1939+499078797+498441655+497910466+497514041+497313169+497199967+497215010
1946+497421163+497757272+498250982+498846967+499568865+500410522+501279859
1953+502246992+503295202+504349057+505452302+506625550+507894955+509236477
1960+510577562+511990764+513378252+514738932+516145614+517604089+519108931
1967+520626375+522122729+523630813+525154011+526666246+528218328+529724845
1974+531172721+532652285+534246399+535809917+537399879+538991552+540466673
1981+541971951+543545267+545115342+546710657+548349134+549974170+551590647
1988+553267040+554896156+556573350+558222024+559818505+561512781+563159890
1995+564730730+566293447+567838244+569277524+570796607+572345484+573929399
2002+575483593+577064194+578652553+580152149+581588188+582957391+584239799
2009+585520240+586764368+588045974+589162987+590221759+591142489+591935667
2016+592623729+593226634+593724897+594069128+594264245+594269562+594046291
2023+593667422+593116710+592343419+591382442+590227514+588764558+587252396
2030+585522644+583796571+582006103+580260543+578615511+576987597+575540595
2037+574321307+573355413+572626594+572135325+571870896+571888816+572193164
2044+572676712+573425891+574387706+575514115+576791679+578230158+579753721
2051+581325799+582991629+584704262+586461258+588328287+590338312+592289259
2058+594314763+596316265+598262295+600273521+602347541+604388088+606380994
2065+608306736+610196967+612008123+613831591+615672104+617402694+619098609
2072+620710242+622249321+623697561+625048043+626361010+627640176+628815100
2079+629936192+630964405+631872060+632687638+633455501+634156202+634814142
2086+635414243+635946306+636440490+636862848+637144760+637453187+637788859
2093+637986052+638156729+638322088+638280566+638127809+638072009+637943729
2100+637914372+638025971+638036170+638017812+637976218+637881737+637805978
2107+637755860+637667499+637542787+637418149+637390395+637315072+637255193
2114+637173752+636956964+636788400+636622166+636477495+636297858+636141022
2121+635897791+635617118+635309200+634964058+634554667+634081317+633584656
2128+633077069+632488041+631749388+630967611+630007945+628955983+627892367
2135+626821757+625595987+624253663+622888030+621407300+619920306+618445185
2142+616886948+615192198+613552957+611909563+610220969+608474937+606859297
2149+605145826+603327239+601555565+599644974+597689875+595624488+593644621
2156+591647636+589642492+587645069+585692520+583662171+581762143+579981837
2163+578203643+576433207+574782091+573169220+571682262+570372974+569090129
2170+567968564+567051586+566180973+565464028+564883122+564272422+563769315
2177+563321607+563033175+562860058+562759422+562774101+562876303+563038857
2184+563326451+563787235+564277704+564799568+565455870+566207489+567091104
2191+568037840+569015208+569896711+570762042+571668859+572560633+573462569
2198+574275706+575065606+575770786+576515449+577255231+577995487+578707150
2205+579429049+580190430+580872409+581473274+582176415+582936594+583621451
2212+584337594+585017097+585688076+586151228+586682890+587249956+587727822
2219+588301407+588874992+589395619+589827884+590172078+590476827+590705380
2226+590901334+591100494+591129049+591132327+590904175+590463387+589927682
2233+589265262+588433403+587454906+586350460+585084697+583656853+582147095
2240+580360742+578308722+576148417+573789681+571259030+568739779+566000572
2247+562998537+560007175+556999423+553858545+550707870+547553479+544284248
2254+541099736+538139734+535364613+532582645+529881681+527384903+524904297
2261+522732992+520885522+519125576+517532774+516078013+514828568+513641806
2268+512571634+511623259+510926237+510072780+509273082+508404946+507382014
2275+506483356+505656342+504828599+504149461+503535082+502910614+502501623
2282+502240472+502006639+502065716+502263710+502381028+502572065+502644182
2289+502701657+502997774+503365279+503751433+504219938+504813483+505392750
2296+505940366+506598233+507142498+507483888+508056672+508808292+509371678
2303+510020222+510428010+510566927+510818280+511029350+511220788+511318983
2310+511516540+511661575+511961043+512423794+512986780+513689520+514402859
2317+515189918+516023416+516976671+517792650+518615549+519245370+519655199
2324+520216983+520645569+520961682+521237912+521254594+521253792+521422830
2331+521606984+521776459+522086452+522167129+522206647+522365123+522202568
2338+522235604+522301164+522066893+521900697+521562147+521169037+520836169
2345+520372217+520085825+519929389+519657639+519544401+519597360+519684155
2352+519882112+520189702+520480174+520750285+521054560+521353591+521830219
2359+522229412+522449041+522548438+522451882+522314167+522120253+521996853
2366+521879535+521692504+521482309+521397189+521199632+520948643+521045199
2373+520999161+520977162+521116479+520951484+520856566+520865963+520744930
2380+520708253+520529053+520323738+520343698+520436976+520621530+520926206
2387+521044362+520896886+520928683+520928647+520685052+520614136+520501335
2394+520271180+520421497+520406818+520162786+520179905+519820194+519156171
2401+518598466+517907564+517468378+517445578+517393020+517208466+516717997
2408+516099175+515707667+515409474+514844448+514064310+513204297+512341916
2415+511788691+510997953+510282174+510043022+509382314+508859211+508823334
2422+508029756+506951825+506409199+505704055+504976402+504532008+503940904
2429+502917571+501816803+500762511+499518347+498083983+496461752+494774396
2436+493067044+491550766+490101323+488931316+488035535+486727814+485622165
2443+484521033+482632806+480834216+479244181+477380795+475840514+474762583
2450+473493178+472239726+471354873+470337622+469630839+468835221+467524659
2457+466607643+465436835+464562981+464381741+463983313+463557604+462508593
2464+460837883+459458044+458519066+458018436+458201314+458464505+457628567
2471+456724154+456234887+455297075+454638807+454353180+453749073+452997016
2478+453635798+452793777+452188759+452092203+451790404+451548776+451689331
2485+451686526+451284419+450746237+450030494+448866606+447393926+446981220
2492+446940499+446558789+446299678+445950566+445475577+444175213+442700893
2499+441467365+440516477
##END=
