##TITLE= TSR_2002_23_FORS_00006.asd.sco.abs | Av. of  3
##JCAMP-DX=4.24
##DATA TYPE=INFRARED SPECTRUM
##SAMPLING PROCEDURE=
##ORIGIN= ASD Instrument
##XUNITS=NANOMETERS
##YUNITS=ABSORBANCE
##RESOLUTION=1
##FIRSTX=350
##LASTX=2500
##DELTAX=1
##MAXY=12.057634
##MINY=-6.7206135
##XFACTOR=1
##YFACTOR=1.1229547e-008
##NPOINTS=2151
##FIRSTY=9.8000164
##XYDATA=(X++(Y..Y))
350+872699169+897276509+905795210+919462008+945174037+958798456+955594049
357+959226481+978350163+971435448+966546799+971842241+986496636+1005848938
364+1025216781+1034559175+1026085059+1025245655+1034598155+1051363628
370+1069337080+1062852427+1059236981+1070090623+1056683273+1049531191
376+1055252109+1069292409+1073741823+1073066326+1068377507+1060751542
382+1069041794+1069449691+1057655330+1053620522+1053126765+1050658067
388+1044508870+1041659027+1036911864+1032931833+1032225084+1026923103
394+1021967958+1018196164+1013971972+1010748457+1007596704+1001786359+989219686
401+983155330+981273721+978855214+974062617+970576342+965296357+954985558
408+947818955+944319177+941689800+935315551+925514050+917773605+912928354
415+903393264+897309799+893420214+888700057+883350943+875400902+867598716
422+863995499+858842733+853520710+847927859+839593106+834452739+830863789
429+826317390+820308830+814639886+809519731+804560934+800092836+796392465
436+792817868+788043104+783262736+778529161+773931467+769987105+767294289
443+764767502+761279019+758638517+755390543+751725925+749227164+747662243
450+745668278+743016736+741990157+741193217+740016235+738412418+737644437
457+736985840+736124187+735195866+734601728+734187122+733794597+733444704
464+733298717+733219566+733048017+733022454+733123770+733521731+734441219
471+734473406+734845804+736076289+736381680+737082740+738435857+740195767
478+741595678+742951004+744255034+745273799+747666744+750437522+752803799
485+755521074+758053381+760379404+762638676+764653872+767189491+770079589
492+772248500+774565606+776865132+778866825+780500875+782029873+783501291
499+784923538+786792662+788563612+790040466+791520547+793095404+794702618
506+796387794+798678233+801008842+803433039+806294263+809440581+812818915
513+816416612+820258554+824762660+829413687+833810702+838779605+844160651
520+849746623+855294038+860379713+865195666+869987244+874981710+879701697
527+883836887+887345581+891156356+894094267+895980461+897526189+898278374
534+898303087+897761433+896865300+895206790+892946500+890447483+887704731
541+884720791+881601309+878558430+875648205+873225112+871509958+870137732
548+869522532+869664018+870295014+871068430+872310040+873927446+875057548
555+876349349+877619919+878509343+878928535+879442249+880337364+881614472
562+883038927+884490133+885930044+887373437+889084685+891166292+893615203
569+896415959+898699689+899959303+900183337+899612723+897990986+895264710
576+892412573+888286301+882962154+877210918+870848813+863872952+856354162
583+848551892+839338839+829297934+819385860+809632342+798814284+786984254
590+775286708+763366402+751372636+739630588+728873931+718153877+707105416
597+695738909+684584291+673112137+661492637+650816149+640272315+629739649
604+619371865+609653974+599983938+590186895+580456775+571564740+562888799
611+554076043+545546131+537779784+530450335+523049719+515736959+508886830
618+502367698+495610137+488936016+482585121+476566625+470377428+463944028
625+457614577+451806356+445955969+439873821+433738042+428120691+422219136
632+416183655+410308767+404500631+398698312+392836757+386882761+380900740
639+374845428+368704172+362552767+356225354+349987134+344028574+337636617
646+331154152+324806824+318638795+311929026+304960787+298134034+291787682
653+284939761+277725174+270661055+263596828+256425808+249051774+241415766
660+233866786+226360204+218772115+211050418+203142585+195185707+187357980
667+179300869+171090967+162798474+154434740+146063214+137691678+129253400
674+120512884+111921825+103494482+94953572+86235375+77441334+68666418+59932685
682+51064085+42222130+33555255+24746856+16052056+7453140-1272837-10062294
690-18792750-27377231-35793234-44278465-52849531-61397129-69687285-77764646
698-85775037-93917004-101964157-109889804-117682945-125280938-132763082
705-140141533-147398465-154455950-161580198-168704593-175491188-182068292
712-188552838-194983924-201226560-207354505-213278479-218930438-224545623
719-230082805-235534169-240907551-246167154-251114741-255759186-260529491
726-265341155-269965430-274225376-278496404-282612443-286553578-290425584
733-294239650-297867622-301347294-305044269-308320034-311333805-314410017
740-317451685-320634904-323855998-326815226-329263924-331732664-334406584
747-336838509-339261602-341591065-343752247-345912199-348113530-350281380
754-352302074-354203513-356149537-358137960-359970269-361695657-363390896
761-365101804-366756917-368456572-370125145-371637624-372999616-374442967
768-376034597-377657395-379019387-380331273-381705494-382934875-384192111
775-385558561-386975203-388037365-389089507-390254302-391482536-392447756
782-393554505-394871911-396064476-397099972-398041753-399010370-400208498
789-401298517-402228111-403075157-403983520-405023474-406096804-407028564
796-407903466-408775098-409651104-410498193-411369783-412280396-413221073
803-414178480-415018860-415823656-416716392-417715030-418566578-419237531
810-419859440-420593961-421412047-422248011-423030387-423868558-424702314
817-425483628-426232586-426837807-427473092-428273344-429074701-429727862
824-430368752-431180172-431928026-432649128-433349041-434025642-434810268
831-435533621-436105466-436589202-437217777-438020238-438891870-439617388
838-440259467-440871355-441515557-442267911-442993472-443687865-444384423
845-445108922-445648369-446120937-446783015-447418343-447981186-448469338
852-448943009-449591712-450377527-451176633-451826441-452482957-453050259
859-453510555-454046689-454601719-455222524-455893520-456356067-456906638
866-457609948-458385657-459008713-459532618-460063105-460674993-461264630
873-461642421-462058174-462881865-463404624-464019866-464762072-465326105
880-465931326-466474085-466982363-467632128-468349875-468938409-469407622
887-470025157-470536706-471037129-471604473-472172879-472608717-473086847
894-473725529-474388627-474871258-475253550-475688326-476296817-476900934
901-477410274-477805899-478171503-478531545-478979569-479530226-479925851
908-480555573-481216505-481671281-482386820-482949664-483385501-483879173
915-484444267-485317003-486117298-486451650-486939886-487370033-487767952
922-488248332-488832365-489500049-490139792-490662508-491206456-491987727
929-492785772-493300675-493845684-494272562-494727337-495387166-496053703
936-496702364-497352128-497988559-498389832-498843461-499392929-499964690
943-500472926-500963328-501347870-501620948-502132539-502598398-502935042
950-503327355-504437458-505482933-506470404-507447896-507997406-508028616
957-507957278-508045346-507997363-507985176-508087681-508377490-508915789
964-509328187-509653664-510001391-510419352-510794935-511128225-511441430
971-511784698-512346438-512682997-512728772-512800067-513338410-513721848
978-513930297-514252377-514620189-514838618-514944520-515141759-515772628
985-516338826-516736744-517080055-517606083-518092112-518582471-519053935
992-519340431-519544337-519934442-520639960-521512696-521776772-521961824
999-522364159-522947087-520674525-521331041-522183650-522854603-523520037
1006-524108485-524610055-525118334-525519521-526027800-526637437-527156884
1013-527682912-528187836-528655946-529076157-529472928-529878617-530219678
1020-530546216-530723498-530799294-530904050-530869442-530922988-531036661
1027-531134750-531223921-531315343-531455725-531543793-531576107-531666383
1034-531650841-531532625-531540481-531575003-531559419-531579504-531603963
1041-531552668-531561627-531656362-531734408-531705406-531826892-532030883
1048-532263791-532619331-533086336-533518819-534049348-534451683-534724761
1055-535173931-535657709-536151423-536753290-537317280-537751928-538359400
1062-539022583-539840669-540643130-541374296-542007372-542619260-543344863
1069-544145073-544860655-545608551-546355343-547020691-547753004-548554318
1076-549320048-550071256-550863780-551563736-552195666-552897872-553644622
1083-554425893-555322027-556072131-556756502-557410726-557985841-558584395
1090-559167281-559759127-560358785-560945025-561540183-562100818-562649182
1097-563268883-563759327-564250833-564785821-565194907-565679704-566242590
1104-566719616-567114180-567573372-568070483-568499569-568911967-569344450
1111-569699990-569965255-570327504-570794467-571151111-571531195-571861130
1118-572004909-572225545-572489748-572722699-572997985-573159598-573222018
1125-573347963-573410383-573553057-573759214-573880742-573893014-573787070
1132-573654501-573571996-573427113-573235394-573045883-572792890-572572211
1139-572333698-572060620-571770854-571438711-571034126-570694170-570360922
1146-569963004-569532772-569080246-568637785-568131799-567652522-567182163
1153-566607048-566099915-565636265-565078984-564529516-563940983-563356951
1160-562745020-562171052-561527954-560842520-560078998-559327790-558652378
1167-558015904-557440832-556898031-556359688-555826908-555355487-554899607
1174-554439269-553960035-553451798-553011545-552587979-552212354-551909213
1181-551569298-551256051-550939534-550669811-550546074-550459153-550403442
1188-550388962-550355502-550416818-550507093-550582889-550802422-551018642
1195-551220425-551429936-551628322-551853501-552070826-552353882-552727299
1202-553204368-553654600-554046956-554366828-554695659-555058970-555490264
1209-555946186-556358584-556815526-557299303-557836499-558393780-558986730
1216-559632036-560249529-560878189-561522391-562172198-562793003-563465061
1223-564131556-564736777-565444546-566265987-567047301-567860929-568656766
1230-569353324-570093407-570889201-571690600-572512041-573368047-574191697
1237-575059975-575857977-576583580-577320308-578054828-578732491-579401194
1244-580037583-580550320-581074183-581526665-581923479-582343648-582608913
1251-582802883-583026916-583137234-583192945-583240843-583254261-583224155
1258-583132775-583098168-583083731-582994559-582937744-582803987-582568743
1265-582314689-582091717-581834265-581658215-581553417-581444203-581430827
1272-581435286-581389553-581414097-581445307-581528916-581644797-581797535
1279-581989254-582258977-582585473-582927680-583340121-583745767-584106870
1286-584602920-585233704-585816632-586467543-587086140-587636754-588163929
1293-588705626-589274032-589834667-590393052-590984940-591532157-592038185
1300-592520774-592968841-593316610-593773594-594316353-594748836-595242550
1307-595603653-595753037-596026114-596313672-596573374-596904413-597175198
1314-597398128-597590951-597759273-597918636-598117021-598273114-598392350
1321-598460333-598475916-598405726-598337700-598263051-598104792-597871842
1328-597650016-597407087-597105007-596774010-596429553-596065095-595617071
1335-595180130-594620641-593918435-593214063-592453938-591645872-590907997
1342-590128934-589335348-588566306-587732635-586896671-586047332-585190264
1349-584340967-583458210-582610059-581809764-580952697-580071001-579197245
1356-578291048-577393896-576531181-575632797-574705496-573772632-572864227
1363-571864485-570793363-569771327-568769292-567693711-566612610-565502550
1370-564385695-563194234-562052920-560970631-559901801-558849660-557781850
1377-556793275-555656378-554480543-553160886-551808873-550206160-548456271
1384-546523623-544313396-542183465-540012261-537691758-535296564-532838948
1391-530216323-527562530-524854173-522134648-519354868-516508252-513704014
1398-510744829-507705390-504526630-501051396-497577308-494019569-490184335
1405-486291183-482305462-478232820-473994106-469691867-465300457-460940300
1412-456440780-452017013-447621187-443301114-438984396-434689929-430516990
1419-426267108-421996122-417658215-413290202-408905416-404383646-399973297
1426-395532885-391260711-387066583-382970543-378933612-375102795-371384632
1433-367835767-364463080-361296677-358298427-355401705-352623050-350012718
1440-347551748-345193326-343051145-341106183-339373046-337743581-336506366
1447-335469851-334924757-334731997-334916986-335557897-336454009-337785916
1454-339160159-340941258-342536200-344210272-345802985-347432513-348888156
1461-350272399-351547533-352667657-353753196-354765295-355730494-356622126
1468-357464714-358268363-359002883-359667128-360275704-360802836-361312261
1475-361828268-362223936-362546058-362805760-362977394-363105547-363204782
1482-363296162-363403126-363503465-363701893-363908050-364124313-364366138
1489-364599131-364785202-365132930-365533141-365980019-366536238-367108041
1496-367724345-368313982-368960435-369572280-370137374-370737075-371351171
1503-372004290-372661910-373345136-374098594-374797446-375480628-376176168
1510-376856038-377555994-378268221-378978156-379678154-380401464-381164943
1517-381881629-382557041-383292623-383999288-384781748-385657797-386517115
1524-387389851-388279276-389149719-390097105-391089076-392124530-393200068
1531-394332464-395579679-396753307-397904641-399125147-400354485-401540384
1538-402804372-404008021-405103686-406168099-407140029-408066183-408893230
1545-409640021-410305370-410864901-411374284-411727531-411941586-412135513
1552-412192286-412201288-412229144-412268124-412310502-412352838-412382944
1559-412357296-412493262-412653771-412969184-413460775-413899797-414401452
1566-414861748-415331003-415806883-416250448-416823356-417436390-418108490
1573-418932139-419600927-420250692-420863684-421402026-421960411-422523254
1580-423035992-423450598-423972210-424517261-425105795-425767831-426437638
1587-427104176-427815256-428607696-429323277-430025484-430753252-431428707
1594-432177707-432977959-433797193-434630863-435542538-436511113-437497564
1601-438565289-439586263-440646218-441642648-442590034-443527313-444439031
1608-445335121-446195671-447085053-447985602-448843816-449713198-450539098
1615-451299223-452087247-452905376-453658792-454376582-455089913-455738574
1622-456415132-457108336-457812793-458506039-459238351-460032999-460753039
1629-461460765-462140679-462759276-463400123-464055535-464654005-465206869
1636-465761900-466260115-466854168-467558583-468129239-468712125-469156879
1643-469455605-469763205-470025115-470274838-470468765-470673818-470861036
1650-471065027-471289060-471481883-471701416-471811776-471928804-471845237
1657-471613390-471328041-470890038-470425241-469910296-469325159-468694333
1664-467863974-467002448-466017186-464839015-463533881-462032526-460230281
1671-458306549-456249061-453990978-451653702-449276299-446737283-444250708
1678-441856618-439231827-436621473-434070228-431382974-428854022-426467744
1685-424144948-422090856-420194896-418451759-416880256-415442468-414177376
1692-413184343-412391861-411662903-410956281-410244096-409469449-408626818
1699-407883423-407058628-406234978-405572942-404809420-404062670-403370528
1706-402620424-401812400-400960811-399948839-398687102-397264897-395566304
1713-393794122-391923894-389815152-387415456-385119454-382627232-380253226
1720-378021895-375662284-373127811-370893041-368688461-366778063-365081720
1727-363594845-362256250-361375785-360818505-360630140-360647932-360835235
1734-361342367-362019987-362796843-363667329-364493186-365227706-365869700
1741-366500569-367175981-367864769-368569183-369227950-369828670-370461747
1748-371136012-371737921-372288536-372697579-372971718-373202418-373293841
1755-373444328-373593670-373670570-373858934-373967045-374111927-374370525
1762-374688189-375101691-375619949-376325509-377013193-377697522-378522276
1769-379382740-380244309-381197258-382024262-382901456-383789777-384549902
1776-385257671-385855036-386347689-386764545-387118982-387407686-387681867
1783-388058554-388548999-388985898-389379315-389780545-390070396-390382454
1790-390698971-390924151-391258460-391602918-391801261-391914976-392093320
1797-392369752-392783212-393129877-393312637-391657525-392276079-392804401
1804-393191194-393758496-394284566-394967792-395916324-396705366-397458782
1811-398288122-399051559-399755931-400460387-401158135-401865861-402583651
1818-403237874-403844199-404506278-405167253-405734512-406446740-407250347
1825-408067330-408985713-409812760-410657598-411466768-412211224-412937974
1832-413721538-414566377-415326502-416089982-416816689-417488831-418148617
1839-418781694-419418083-420063431-420705425-421169118-421552514-421920326
1846-422100878-422388435-422884357-423089452-423198709-423188688-423020408
1853-422758455-422480919-422177778-421765422-421346273-420722155-419968697
1860-419143901-418210995-417089767-415998602-414626547-413202177-411698572
1867-409959893-408149792-406029926-403780675-401099027-397941456-394452846
1874-390521732-386198305-381560611-376611920-371401362-365942184-360015959
1881-353819013-347109308-339844509-332185189-324067760-315583687-306371823
1888-296468773-286017508-274573166-263179951-251336566-239314796-226771413
1895-214007352-200997028-187539699-174036638-160354256-146563648-132477733
1902-118478760-104383874-90591079-76954340-63235085-49971779-36949083-24234055
1910-11976069+0+11657289+22788521+33504010+43927446+53863880+63609675+72992048
1919+82096985+91010123+99206734+107168092+114989057+122180321+128753964
1926+135173925+141021010+146246059+151296140+155887029+160075637+163914172
1933+167156477+169932828+172358129+174368781+175951622+177207616+177971138
1940+178101573+177927699+177333677+176339455+175158004+173664441+171761835
1947+169623041+167173122+164540667+161572480+158365929+155120312+151680704
1954+148186552+144765861+141253791+137586965+133790765+129950957+126197231
1961+122411021+118781848+115155181+111413504+107571604+103639386+99741754
1968+95918792+92132582+88334111+84563538+80752806+77051298+73488007+69832237
1976+65958029+62209775+58361086+54490280+50931368+47325714+43624308+39978596
1984+36273708+32451816+28730287+25032155+21356343+17726093+14098223+10582953
1992+7099780+3573349+177179-3171970-6462222-9646633-12603465-15683056-18743709
2001-21861184-24935197-27967946-30931486-33671080-36223485-38661068-40889103
2009-43006727-45098778-47238761-49093358-50856676-52368025-53650919-54723108
2017-55641482-56409431-56923229-57154020-57039232-56500858-55812086-54846866
2025-53597448-52188604-50389708-48019035-45657221-42957696-40336244-37614439
2033-34994189-32458496-29827022-27434030-25344150-23512874-21957042-20636288
2041-19533949-18779389-18352491-18134050-18184194-18572109-19176213-19887206
2049-20856904-21926839-23100616-24421295-25817891-27257850-28936441-30854567
2057-32693625-34697627-36697212-38590816-40671710-42939907-45082143-47187546
2065-49258379-51344817-53378919-55459810-57634337-59640642-61575509-63481411
2073-65421857-67160552-68732187-70307013-71917608-73245009-74571306-75781801
2081-76821644-77764646-78658502-79546790-80348232-81040348-81665606-82267494
2089-82770120-83014222-83408828-83938232-84259144-84533384-84848776-84717296
2097-84391840-84361739-84249139-84381819-84894514-85190973-85454056-85718185
2105-85914293-86176219-86479361-86822698-87206163-87560557-88126776-88739827
2113-89342803-89786305-90063937-90419434-90808457-91262065-91666660-92131425
2121-92441233-92687581-92861466-92941773-92964003-92892750-92786774-92667549
2129-92522645-92064557-91468253-90574338-89450881-88428819-87415669-86189675
2137-84954705-83491248-81744778-79969209-78112325-76149608-73895915-71850703
2145-69885746-67784759-65604617-63723322-61544267-59020925-56630109-53903875
2153-51092896-48063573-45194638-42291177-39279607-36190006-33266604-30183683
2161-27335970-24820396-22162121-19432510-16870095-14249678-11958228-9939712
2169-7831021-6100083-4645484-3252292-2300435-1528137-625297+109220+831579
2178+1258273+1492456+1588238+1466757+1231576+862679+401200-241861-990815
2187-1797796-2754133-3872009-5160486-6441105-7720598-8860794-10053412-11363032
2196-12541086-13655763-14599762-15561576-16338455-17203336-18110629-19071369
2204-19902845-20927167-22207760-23300117-24366698-25529213-26731890-27844085
2212-28982184-30040880-31065328-31855467-32686945-33553002-34268528-35196938
2220-36099754-36870004-37460681-37882050-38202927-38349020-38388030-38372338
2228-38092670-37790582-37011513-35808924-34455817-32801746-30882468-28752506
2236-26427549-23822899-20890385-17877753-14289941-10132531-5785707-1126733
2244+4035929+9274357+15022181+21331745+27572252+33881790+40545917+47305699
2252+54307420+61733863+69053158+76087177+82931866+89976941+97007770+103751987
2260+110661150+117133435+123157696+128912308+134556389+139767011+144374748
2267+148923164+153388193+157340422+160688576+164189490+167272379+170548070
2274+174007848+177270100+180458806+183644232+186564394+189291796+191978986
2281+194366516+196561117+198886036+200820935+202544094+204421031+206171981
2288+207992104+209989338+211831774+213464572+215446414+217467002+219031924
2295+220917714+223062188+225068446+227586337+230950021+233698463+236259751
2302+239121909+241835999+244904419+248540098+251763465+255006895+257939286
2309+260813715+263325959+265860474+267545798+268689255+269020422+268217813
2316+267225905+265706652+263874450+261354308+259604441+257796717+256500352
2323+255821628+254441674+253286051+252276160+251335483+251158308+250742661
2330+249858672+248919078+247595006+246017813+244884291+243619263+242251751
2337+241446998+239871015+238330616+237490236+236361216+235850729+235307928
2344+234441943+234256891+233859015+233352966+233349696+232576110+231199638
2351+229728390+227618481+225539888+223542590+221191960+218674090+216156305
2358+213294063+210973539+209189085+207690066+207110450+206511959+206591110
2365+206944336+206616694+206733678+206778200+206288966+206292342+206047226
2372+205192197+204782049+204423175+204093346+204441052+204779841+204820032
2379+205448671+206185293+207072616+207946435+207955288+208038898+208148133
2386+208398939+209208087+210089741+210915620+211488484+212620923+213648521
2393+214169007+214965927+214828772+214916882+215679300+215917750+216865221
2400+218611734+220163194+221838370+223425605+224399615+225602287+227069013
2407+228944846+231027940+232768912+234829777+237535990+240272203+242590434
2414+244965735+247013160+249593386+252139069+253252569+255134920+257205891
2421+258672723+262095495+265839391+268717153+271946146+274568623+276626218
2428+278986721+282621488+286818949+290891655+294932896+299126048+303899707
2435+309170393+314275198+318156078+322323455+325912447+329198213+334198177
2442+337794855+341359324+347142747+352366682+357624076+363666267+368795467
2449+372518216+376720115+381274158+385062767+390271075+394840658+398897802
2456+403757363+407377480+411752117+415604081+418685771+421448863+423170811
2463+426809951+430767647+434436893+438815013+441511098+442331521+443887312
2470+447150870+449095748+450112263+451890050+453638919+456699378+461711593
2477+466409456+466240072+468518283+470494370+471942264+472541880+473405615
2484+474087778+473311984+474018607+476104036+476874140+478538339+481759434
2491+483946137+485765027+486178742+487178357+487051351+485364986+488849053
2498+491181997+492300890+493252777
##END=
