##TITLE= TSR_2002_23_FORS_00003.asd.sco.abs | Av. of  3
##JCAMP-DX=4.24
##DATA TYPE=INFRARED SPECTRUM
##SAMPLING PROCEDURE=
##ORIGIN= ASD Instrument
##XUNITS=NANOMETERS
##YUNITS=ABSORBANCE
##RESOLUTION=1
##FIRSTX=350
##LASTX=2500
##DELTAX=1
##MAXY=15.376845
##MINY=-6.8120365
##XFACTOR=1
##YFACTOR=1.4320803e-008
##NPOINTS=2151
##FIRSTY=9.9805069
##XYDATA=(X++(Y..Y))
350+696923681+727565476+735101078+749952790+783741667+805400914+809005361
357+815552447+834477492+832403300+829728167+830580033+837503040+873280536
364+907074807+918001158+902909842+902476983+922941673+954117349+971695937
371+965699713+965898096+981722075+967043440+965845820+980268203+998600231
378+1006977377+1005683396+1000974627+1001423069+1011825394+1015217141
384+1007976948+1003127399+1012306466+1016649370+1007556542+1010310056
390+1013033935+1014932786+1016930861+1013047187+1012161159+1013809618
396+1012433993+1014509117+1016960362+1014429072+1000808942+998531240+1002372627
403+1003930785+1002237376+1001322512+999647150+995214877+994313998+996303750
410+997915582+994576044+985979606+982437956+984958326+977907658+975127973
417+976518182+977870432+974657689+968823421+965040902+967562604+968535670
424+965797539+960405586+956079730+955148019+955752089+955281872+951614960
431+948391229+946079897+943965816+942731103+942163659+941663940+940412646
438+938935266+937364588+935853712+934633650+934838825+935076631+933894527
445+934319461+933610239+931894854+931758603+932767563+933038200+932185602
452+933171720+934276775+934714295+934524770+936138333+937166406+937273755
459+937903264+938726095+939831350+941044553+941577035+942348656+943513778
466+944829269+945539024+946241653+947475034+949500213+950197248+951029069
473+952974069+954959958+956178622+957664659+960490493+962276201+964247905
480+966486317+968007183+970033427+972688981+975682698+978231969+980716511
487+983274972+985841157+987616410+989762790+992315324+994137659+996279443
494+998417498+1000093926+1001119069+1002318154+1003483809+1004223131+1006151350
501+1007561070+1008045406+1008932833+1010236936+1011488230+1012445780
507+1013966645+1015277741+1016652566+1018754861+1020688407+1022953057
513+1025618001+1027986337+1031396330+1034782017+1037205226+1040384406
519+1044212275+1048359127+1052318118+1055418318+1058122952+1060957377
525+1064302975+1067256402+1069382604+1070728128+1072657812+1073713188
531+1073741823+1073738826+1072890090+1071316416+1069242824+1066816551
537+1063458301+1059524349+1055622761+1051396329+1046902724+1042358708
543+1038119024+1033623088+1029400586+1025975675+1023178543+1020951185
549+1019302793+1018228571+1017296793+1016895899+1016828174+1015831134
555+1015101201+1014413422+1013202017+1011238171+1009630800+1008638422
561+1007799675+1007304685+1007042572+1006885878+1006760615+1006752158
567+1006822880+1006926966+1007362222+1007355829+1006347135+1004123640
573+1001025704+996548348+990547063+984605313+977069910+967985606+958296499
580+947323333+935557504+923341101+910689510+896242354+880513870+864339076
587+847158651+828338491+808263175+788110210+766959939+745253944+723587905
594+702688625+681588166+659902549+637623116+615093425+592125414+569053250
601+546882565+524832481+502929069+481414398+460665253+440123581+419686095
608+399627094+380673148+362267300+344095895+326577541+309992497+294222658
615+278954220+264000386+249819272+236331348+222974646+210110821+197872559
622+186220971+174839902+163638537+152866817+142827178+133034667+123430325
629+114127411+105398867+96800197+88387199+80312296+72575448+65025170+57657500
637+50574239+43704007+36985255+30397076+23982321+17694792+11675622+5993677
645+207489-5466683-10889815-16048753-21385642-26730322-31822419-36405391
653-41193702-46110905-50797274-55359337-59800916-64201282-68703582-72974152
661-77112697-81246463-85308850-89377354-93368178-97156939-100975160-104796578
669-108578313-112304194-115931258-119444089-122911894-126645416-130160677
676-133435661-136755811-140177683-143576356-146845154-149940659-153139634
683-156363332-159465014-162499103-165419783-168312461-171337294-174320788
690-177193305-179939859-182616440-185285297-188010158-190797085-193459699
697-195938863-198363687-200977387-203533467-206016594-208425869-210706101
704-212962227-215181859-217335497-219473486-221724184-224007547-226085784
711-228062916-230063339-232122114-234100012-236004889-237805598-239502986
718-241305293-243089686-244836820-246625025-248369046-249940523-251359699
725-252934989-254647877-256283083-257669596-259171099-260597219-261919169
732-263265326-264633908-265966763-267275528-268735826-269901581-270925175
739-272074598-273269121-274572525-275924792-277169793-278092315-279004764
746-280044607-280998195-281997665-283002530-283960812-284905876-285893693
753-286876781-287777493-288639381-289522346-290416832-291235201-292020939
760-292827655-293681818-294538245-295414151-296260490-297012032-297672641
767-298421820-299275950-300099746-300773574-301422562-302108776-302734357
774-303384877-304107684-304867784-305427303-305932483-306509916-307211713
781-307757315-308382929-309137568-309822283-310375643-310843497-311328432
788-312005389-312607695-313133818-313652250-314147307-314747282-315383751
795-315895157-316387883-316855803-317306509-317771266-318257033-318766075
802-319302320-319889875-320417563-320923542-321466779-322017808-322498082
809-322888287-323231777-323701928-324198617-324656281-325068296-325527493
816-326005502-326470259-326927224-327274643-327633716-328110094-328577981
823-328960361-329334950-329811395-330270691-330744005-331193212-331566270
830-332043413-332512099-332884358-333161021-333534811-334025972-334573172
837-335051947-335434994-335759904-336106524-336626487-337148714-337618932
844-338039371-338473828-338810325-339118920-339550980-340011841-340404311
851-340731552-341085930-341525814-342065955-342626307-343038988-343443877
858-343814604-344137183-344480673-344907339-345356546-345758372-346123638
865-346548705-347044561-347562127-348009070-348406202-348812689-349278179
872-349695554-350004915-350357695-350943685-351297331-351754296-352330997
879-352749838-353210699-353613291-353983984-354496988-355030104-355458301
886-355806519-356275172-356654422-357018123-357435466-357895561-358232891
893-358599689-359106400-359637251-359990097-360265196-360612615-361075773
900-361553716-361975021-362306057-362565639-362829117-363206037-363707321
907-364012752-364496156-365039460-365462962-366041994-366441422-366754679
914-367204652-367785981-368534427-369176356-369484152-369919308-370336650
921-370758687-371266164-371851422-372404749-372944857-373532445-374109080
928-374802353-375511941-376073059-376542478-376925624-377349226-377931288
935-378571752-379198099-379821382-380440802-380855048-381270859-381793086
942-382397756-382834511-383331133-383758564-384011187-384471249-384894085
949-385242203-385651022-386527694-387420614-388288762-389095477-389548547
956-389579680-389517515-389591334-389619270-389641046-389736674-389976811
963-390398848-390866668-391301125-391650842-391897238-392126520-392445903
970-392812734-393087100-393562712-393949754-394109112-394162720-394691940
977-395033132-395214234-395577202-395870148-396208277-396449912-396571945
984-397174251-397640606-397943707-398251436-398710732-399114956-399560234
991-400055291-400399580-400578317-400840264-401391293-402195644-402439676
998-402717138-403155424-403545597-401608854-402173135-402860914-403421266
1005-403987046-404499983-404934407-405397599-405811112-406285159-406803524
1012-407292387-407857368-408325255-408729411-409110194-409455282-409742867
1019-410037377-410375506-410544088-410608650-410713502-410714335-410765578
1026-410866634-410947446-410984006-411058624-411210957-411293300-411329826
1033-411404478-411412236-411320536-411353167-411436343-411462780-411512526
1040-411564569-411545090-411599564-411726192-411845927-411929036-412094588
1047-412294368-412535238-412881857-413284449-413686309-414176671-414585456
1054-414891653-415353280-415878704-416392407-417011029-417562058-417962319
1061-418529630-419114855-419861769-420617940-421347673-422000524-422619911
1068-423337291-424119933-424836480-425584859-426310763-426970573-427679396
1075-428413857-429146686-429893601-430647441-431322833-431977981-432675883
1082-433387003-434139344-434956115-435660243-436304536-436920860-437450879
1089-438035338-438628355-439204989-439802667-440374639-440926434-441451825
1096-442016039-442608256-443070683-443550989-444045280-444467251-444990344
1103-445552228-446038728-446449877-446914600-447403431-447829364-448245940
1110-448651629-448982699-449264057-449615305-450034212-450398746-450763213
1117-451070975-451270723-451498473-451734714-451953075-452204898-452360328
1124-452433348-452543760-452612918-452697625-452839835-452934698-452913721
1131-452801011-452643984-452493216-452311348-452091423-451839599-451517086
1138-451192209-450863470-450527704-450199764-449826740-449417156-449026185
1145-448601850-448120811-447598517-447064602-446546238-445986718-445453503
1152-444905570-444252786-443625574-443000726-442281814-441566799-440844025
1159-440137599-439422583-438754250-438051654-437316460-436530722-435764362
1166-435037759-434334364-433680015-433035755-432409342-431806270-431232665
1173-430676209-430131406-429565627-428978804-428477554-428022919-427599350
1180-427231787-426892126-426583531-426248598-425999138-425872444-425768325
1187-425712353-425683551-425642396-425674261-425732564-425805584-425980492
1194-426147542-426334104-426531554-426731235-426958187-427195992-427468027
1201-427834825-428259193-428654759-429042567-429377533-429750557-430182717
1208-430643545-431107569-431525711-431967093-432444303-432944788-433458524
1215-433999431-434567541-435122433-435688212-436280429-436875777-437478849
1222-438140290-438789977-439386057-440021060-440712702-441410603-442161413
1229-442935464-443664431-444423732-445221890-446006896-446831458-447698840
1236-448531161-449403904-450228533-451004948-451766579-452526679-453230007
1243-453903802-454547329-455092165-455642395-456115676-456544672-456990017
1250-457301642-457557328-457815379-457967678-458082719-458175184-458230357
1257-458240512-458183741-458163497-458136360-458067935-458024416-457931152
1264-457778020-457589160-457428336-457235581-457085612-457000073-456922358
1271-456907641-456909139-456909938-456970572-457056844-457200586-457387115
1278-457614832-457889964-458235052-458643803-459068904-459551575-460041970
1285-460514519-461079532-461750996-462387498-463066786-463732057-464349113
1292-464947524-465577866-466205843-466822101-467443819-468053184-468629086
1299-469163733-469661121-470147654-470573553-471043771-471574556-471996559
1306-472396820-472744206-472961834-473244724-473537736-473815165-474133849
1313-474403520-474648318-474859686-475023673-475165917-475337662-475484567
1320-475595712-475658643-475674193-475619020-475548264-475462791-475301934
1327-475072653-474836378-474571369-474259677-473904534-473543163-473180994
1334-472722463-472242157-471687265-471011906-470334183-469621498-468875382
1341-468165894-467420511-466615394-465808646-464935836-464025035-463112603
1348-462198638-461267593-460285203-459337842-458420748-457462532-456484072
1355-455509441-454499848-453513663-452549187-451581549-450602389-449642509
1362-448706002-447747753-446771590-445850667-444970133-444067023-443176367
1369-442305921-441455720-440580613-439742832-438926761-438112287-437287691
1376-436374526-435473748-434422267-433259543-432008281-430694855-429231427
1383-427655289-425951757-424075615-422220482-420342775-418305010-416187965
1390-413994004-411632195-409236089-406754611-404273065-401730853-399132769
1397-396554897-393869708-391123154-388259261-385200249-382159950-379024023
1404-375676694-372285047-368802533-365273337-361632230-357942210-354185330
1411-350464944-346645899-342889785-339156912-335501920-331865475-328248475
1418-324721610-321180760-317606513-314069592-310552849-307102899-303632039
1425-300276952-297006538-293827092-290739378-287710733-284708459-281882625
1432-279144594-276549590-274111564-271822857-269660745-267587935-265608439
1439-263764229-262040436-260395923-258885862-257522624-256275292-255110369
1446-254134240-253285554-252669979-252217625-251974359-251961157-252113539
1453-252508290-252928812-253566829-254141199-254772257-255369136-256001742
1460-256576795-257116286-257633036-258114092-258588954-259042074-259487402
1467-259931965-260343031-260727010-261107093-261466066-261811121-262139094
1474-262461641-262795108-263085773-263346886-263611912-263841211-264019099
1481-264174595-264323016-264477696-264643215-264868618-265093205-265346543
1488-265625587-265904581-266175018-266540301-266932754-267372738-267895681
1495-268428081-268998555-269549567-270138671-270705250-271250851-271794855
1502-272323292-272906203-273481339-274100726-274807950-275450695-276088779
1509-276719837-277330717-277946974-278557072-279166420-279760186-280368652
1516-280987340-281593542-282179566-282803582-283441682-284080514-284740291
1523-285407892-286042130-286735369-287458909-288225202-289037378-289881386
1530-290739345-291668926-292716510-293694238-294660278-295678395-296691051
1537-297659389-298700847-299715834-300680309-301606693-302455363-303271401
1544-303991078-304667237-305294449-305822903-306277571-306584534-306771130
1551-306936615-307030645-307113820-307189204-307277041-307357087-307421550
1558-307472127-307473659-307629854-307807826-308111693-308578048-309003881
1565-309461645-309924838-310428485-310926639-311428722-311975855-312532278
1572-313134617-313805315-314415413-315041060-315636407-316199057-316750885
1579-317302646-317812520-318256267-318737339-319211386-319728219-320252045
1586-320836471-321445037-322107144-322868808-323550428-324234311-324933777
1593-325576539-326292321-327057848-327841222-328645573-329494276-330377174
1600-331295001-332271130-333223219-334223422-335186366-336124404-337046893
1607-337963987-338860870-339711104-340597066-341486990-342378379-343305595
1614-344183000-345037896-345878041-346702603-347492237-348255434-349011604
1621-349711870-350422224-351130181-351856851-352596739-353328869-354106084
1628-354796194-355428800-356062205-356647430-357242777-357848979-358405402
1635-358904355-359453819-359972983-360575289-361301160-361905830-362522920
1642-363023404-363409680-363787366-364103686-364424701-364698201-364981124
1649-365247698-365529822-365832890-366099530-366395606-366570481-366724312
1656-366711892-366560358-366370733-366054413-365718682-365333171-364902643
1663-364451904-363854992-363183495-362396225-361451162-360358427-359136733
1670-357681096-356068398-354346220-352452930-350492913-348529766-346463998
1677-344445712-342497282-340388028-338314469-336273641-334128626-332129685
1684-330218615-328355691-326755513-325258654-323868312-322696331-321648647
1691-320743240-320094285-319579816-319105669-318665818-318222071-317709100
1698-317131667-316596221-315957355-315330942-314823498-314258451-313743949
1705-313251955-312707952-312115701-311453594-310672518-309685500-308536860
1712-307200059-305773923-304222691-302545564-300639887-298833735-296928091
1719-295094668-293346053-291546094-289656799-287973378-286321091-284880237
1726-283583093-282470980-281496348-280837305-280407576-280284011-280328329
1733-280497710-280894076-281365026-281884989-282495852-283109046-283681852
1740-284162092-284626849-285153005-285672202-286214641-286761741-287259128
1747-287776028-288341009-288857808-289310179-289642748-289873594-290064818
1754-290146395-290278550-290442504-290520185-290620475-290699722-290785228
1761-290949182-291240629-291603597-292056700-292690871-293271435-293865217
1768-294490831-295146012-295794934-296429105-296984829-297610443-298232960
1775-298776198-299325695-299760918-300117593-300484424-300812398-301106975
1782-301379776-301713210-302093260-302435218-302770917-303098890-303388006
1789-303673993-303975562-304213401-304490764-304837483-305070561-305276535
1796-305563354-305822104-306208413-306544911-306815381-305112582-305679127
1803-306206815-306691084-307263789-307806294-308433473-309220743-309913983
1810-310592472-311278686-311941659-312598372-313196849-313739288-314331471
1817-314952490-315487137-315968276-316508384-317038403-317450318-318033178
1824-318745863-319415829-320124551-320822486-321532074-322243161-322981518
1831-323687943-324387376-325109418-325769261-326408859-327001110-327517910
1838-328063511-328557769-329092483-329703380-330292467-330716768-331062622
1845-331394492-331559211-331819625-332233871-332444473-332589015-332637162
1852-332584353-332485628-332312318-332105612-331778404-331387566-330859811
1859-330224075-329519947-328737306-327786815-326857268-325735831-324490796
1866-323181233-321614451-319872794-317919703-315822137-313399660-310607988
1873-307613572-304401462-300892443-297181447-293333666-289233230-284934678
1880-280281614-275429702-270175914-264452824-258384662-251895146-245093222
1887-237804066-230001973-221793392-212872092-203980411-194741210-185336641
1894-175579092-165647484-155525485-145101983-134636435-124059036-113389137
1901-102487576-91639657-80716420-70034093-59456544-48870728-38650816-28554380
1909-18716848-9266977+0+8998219+17651360+26009912+34194301+42060260+49756661
1918+57149982+64337324+71375506+77836262+84066104+90115570+95754103+100916092
1926+105918073+110604508+114809771+118751606+122383398+125650657+128582250
1933+131157800+133368826+135263689+136815712+138070070+139016590+139552111
1940+139656971+139550513+139129300+138404228+137539268+136433956+135019665
1947+133431848+131612443+129673453+127508153+125173430+122841920+120331707
1954+117706269+115134681+112463594+109764363+107055833+104231589+101395691
1961+98505377+95618110+92651522+89686640+86661033+83537676+80509780+77484947
1969+74465533+71520721+68532507+65449513+62483740+59629221+56656573+53549322
1977+50525247+47446141+44381701+41510762+38626650+35685052+32763664+29824379
1985+26899046+23929363+20920935+17895403+14938180+11987274+9180893+6426493
1993+3566476+778731-1917308-4548849-7091753-9406160-11842669-14276807-16759877
2002-19174619-21632815-24070081-26278811-28387342-30446058-32308883-34113488
2010-35844306-37545582-39075092-40507463-41793636-42955570-43963527-44858150
2018-45608040-46119446-46469936-46590354-46417127-46127999-45695103-44978568
2026-44088739-42940840-41386449-39804900-37990149-36135029-34216883-32418607
2034-30626439-28763395-27039662-25450330-24077854-22904316-21874546-20985412
2042-20345866-19933121-19669643-19587982-19742733-20159225-20601429-21294833
2050-22077311-22861524-23690760-24593089-25481384-26588848-27915599-29105472
2058-30381568-31677886-32873108-34164842-35664054-37124356-38498508-39834359
2066-41184391-42458893-43819759-45277773-46612168-47944203-49208699-50439012
2074-51576831-52617444-53640897-54701105-55581614-56504103-57345022-58015695
2082-58646062-59261562-59823429-60395427-60998561-61486626-61955233-62315866
2090-62447193-62730903-63063521-63337920-63699245-63986080-64031943-63959609
2098-64039726-64050568-64212253-64606246-64840194-65011893-65203816-65337648
2106-65530328-65779851-66032357-66266313-66532862-66981383-67467021-68024297
2114-68478175-68795235-69184633-69591050-70065143-70469349-70877360-71216938
2122-71492103-71761765-72069453-72236561-72273113-72325156-72319803-72311263
2130-72194599-72031378-71625798-71014110-70432723-69763648-69025366-68296328
2138-67372246-66223510-65126201-63974410-62776757-61499832-60269519-59033795
2146-57696337-56255417-55008022-53696140-52216372-50758495-49170691-47453087
2154-45483726-43677528-41854227-40023290-38176652-36412416-34608570-32916740
2162-31420587-29774548-28049153-26425627-24691829-23187266-21904084-20634098
2170-19626132-18740886-17833138-17222370-16715528-16124913-15723987-15451879
2178-15280945-15256071-15274687-15361688-15577010-15891852-16235254-16697669
2186-17234729-17735991-18438643-19332359-20309252-21315681-22397493-23338748
2194-24347529-25433168-26477808-27597640-28552786-29512656-30396298-31286199
2202-32169780-33048766-33812759-34682507-35660166-36518175-37313149-38261422
2210-39266245-40201240-41245741-42184565-43071334-43756874-44472581-45220935
2218-45817123-46475426-47187295-47775629-48196859-48641421-49006700-49256226
2226-49457526-49717058-49679674-49564601-49153526-48443251-47581355-46507249
2234-45230383-43770846-42144959-40285943-38225632-36037053-33525990-30659028
2242-27744527-24632691-21067751-17422764-13413306-8839642-4373968+79209+4796022
2251+9431873+14269094+19496416+24632015+29452832+34102735+38824113+43319325
2259+47801201+52513292+56831394+60822970+64729103+68510843+72074248+75384126
2267+78562107+81637393+84434442+86818835+89373475+91775641+94210620+96803269
2275+99109964+101352954+103655704+105721422+107712596+109723924+111223987
2282+112449485+113922236+115113629+116333092+117777067+118956099+120011508
2289+120972854+121823895+122621237+123627667+124724289+125545738+126488521
2296+127550881+128586970+129755030+131255768+132435424+133358820+134592192
2303+135812346+137253890+139113817+140677435+142227918+143623055+145034307
2310+146136315+147261032+147801139+147819752+147568777+146792279+145757947
2317+144418049+142942951+140869491+139057029+137485611+136083615+135094208
2324+133999958+133075173+132500736+132039159+132255938+132368647+132043046
2331+131829297+131150009+130342536+130082929+129564564+128984792+128903964
2338+128264357+127819861+128125950+128241840+128493655+128634293+128544874
2345+128779650+128967769+129040023+129416152+129525657+129105193+128590741
2352+127803537+126722406+125712864+124592958+123040944+121467095+119776033
2359+118460243+117690004+117047267+116716238+116355617+116472214+116880991
2366+117037203+117468563+118058342+118171950+118379381+118701153+118194476
2373+117926328+117978296+117886647+118328853+118549536+118794418+119463625
2380+119773602+120455246+121136075+121332717+121754688+121935847+122147981
2387+122616593+123065817+123870176+124616999+125549643+126435571+126886402
2394+127709382+127989200+128051391+128570588+128771875+129465823+131001597
2401+132370187+133956389+135379454+135995778+136955592+138017952+139467421
2408+140988328+142069375+143279515+144400868+146075049+148181073+149909544
2415+151402639+153434195+155357602+156525721+158542526+160870140+162053126
2422+164173217+166936870+168970772+171110359+173066497+174896740+176322110
2429+178646611+181788881+184329379+187339427+190497880+193818738+197089118
2436+200030809+203354763+206897911+209921894+212712101+216320444+219161794
2443+222040487+226588583+230516442+234034766+238345805+242466403+245537784
2450+248780878+252425181+255505936+259220096+262142324+264820420+267913611
2457+270259172+274250695+276850394+278299022+280374146+280726926+283461893
2464+287622097+290928304+294654851+296998081+298297489+299769475+302024102
2471+304117839+305171684+306458539+308290497+310527943+313797657+317211047
2478+316359181+317501495+319411933+319999389+321630866+323368560+322986113
2485+322889120+324178505+326532490+329261198+331791589+333644324+334226486
2492+334643096+334649355+335337268+334806982+332620114+334063331+336141652
2499+337820977+340192909
##END=
