##TITLE= TSR_2002_23_FORS_00012.asd.sco.abs | Av. of  3
##JCAMP-DX=4.24
##DATA TYPE=INFRARED SPECTRUM
##SAMPLING PROCEDURE=
##ORIGIN= ASD Instrument
##XUNITS=NANOMETERS
##YUNITS=ABSORBANCE
##RESOLUTION=1
##FIRSTX=350
##LASTX=2500
##DELTAX=1
##MAXY=3.5519679
##MINY=-7.8831053
##XFACTOR=1
##YFACTOR=7.3417139e-009
##NPOINTS=2151
##FIRSTY=1.6223366
##XYDATA=(X++(Y..Y))
350+220975190+223137765+228959520+254035380+287947344+285371726+277022431
357+279122038+289840154+273931864+262921154+262575024+269128056+281545936
364+289208265+287391933+277525526+269085108+271002014+281063008+285874853
371+268073673+255494866+259271051+243099783+231150250+226302130+224620032
378+221291703+213500678+200717865+185614392+184191261+176021713+157245356
385+144468145+135174370+124418568+110506398+99116279+87928347+75121511+60777365
393+52484442+41495238+27144483+14578954+8133279+95319-13753860-31555021
401-41963256-50229436-61485614-71452476-80023060-90294578-104520704-115209348
409-123726317-131141937-138285144-151120159-162451426-169864269-181261248
416-190697043-198881318-207356549-214036962-223270294-233304333-240034514
423-248033603-255709230-263479114-274574210-282871123-289363818-296211945
430-304377272-312506487-320241363-327683775-335148983-342272040-349161800
437-356333212-363865447-371066378-377725310-385010804-390901193-396427933
444-403147300-409649281-416300192-422937722-428981034-434891428-440894439
451-447047709-453249237-458966472-464509417-470288451-475724035-481484169
458-487409404-492733633-498092772-503628994-509314112-514973608-520356843
465-525734752-531370216-536611213-541499569-546240263-551163399-556797467
472-562009042-566430512-571730547-576681871-581287081-585903074-590398196
479-595333542-600727494-606039609-610344301-614506884-619125474-623474461
486-628051613-632864661-637656340-641923556-646111534-650376022-654538605
493-658808419-663131945-667415204-671646178-675763102-679853202-684010329
500-688049444-691880657-695581647-699399481-703623700-707618585-711036592
507-714976465-718715061-722227050-725832890-729434638-732976113-736514861
514-740278982-743540007-746656326-750035364-753240144-756383157-759487201
521-762545780-765895396-769080042-771937280-774986376-777690789-780278423
528-783074089-785734141-788402312-791120104-793843287-796854843-800091772
535-803405147-806565631-809964869-813416455-816560767-819588430-822625512
542-825630378-828397791-830904954-832946691-834434284-835697932-836419645
549-836649045-836674570-836728218-836724191-836838177-837706156-839063720
556-841046354-843792269-847100383-850703495-854185932-857100909-859991725
563-862806161-865354826-867380456-868779588-869581773-869870212-869565666
570-869124337-869021003-869672962-870775666-872266051-873980446-875264163
577-876810924-878746600-880829840-882894375-884830115-886478717-887523746
584-888967174-890478992-891470309-892189295-893270501-894731464-896079546
591-897640986-899219897-900448667-900668585-900641826-900865900-901638468
598-902718376-904132316-905646797-906682410-907760888-908910551-910014619
605-910830184-911915418-913411129-915134941-916475034-917817855-919384620
612-920891113-922058117-922967663-923849021-924903404-925885303-926774715
619-927767396-928785537-929678976-930415368-931209500-932272001-933341127
626-934041342-934793906-935675265-936619623-937420510-938385003-939334752
633-940106087-940990108-941910306-942776856-943522795-944385319-945320325
640-946241886-947053489-948042143-948977150-949625081-950545279-951441381
647-952169784-952773420-953700373-954774889-955699179-956086860-956882355
654-957946090-958772437-959550526-960358037-961236733-962178364-962961779
661-963696937-964483015-965161797-966014903-966925813-967613948-968365148
668-969182077-970031220-970854904-971622212-972306385-972971722-974007335
675-974804129-975366198-976073168-976906205-977778210-978593775-979259113
682-980077406-980907779-981569090-982336398-982996475-983594720-984371445
689-985246049-986067005-986737733-987285059-987885967-988666719-989629848
696-990378451-990892198-991396592-992252490-993088124-993848742-994523563
703-995073486-995627501-996197689-996742351-997226546-997950987-998853779
710-999564711-1000120090-1000675469-1001325999-1001976658-1002651413
716-1003200038-1003528745-1004035802-1004652818-1005332964-1006047923
722-1006708000-1007145236-1007420295-1008030621-1008834171-1009549195
728-1009978443-1010582144-1011098554-1011494223-1011943670-1012474888
734-1012971229-1013442044-1014189218-1014550075-1014725827-1015106818
740-1015628683-1016334224-1017124394-1017803176-1018059400-1018369207
746-1018901789-1019215688-1019630193-1020105100-1020554417-1021052122
752-1021557880-1022047465-1022490158-1022849651-1023304424-1023857140
758-1024295806-1024611068-1024993293-1025552699-1026101324-1026613771
764-1027086016-1027527344-1027874757-1028312059-1028876790-1029471139
770-1029836022-1030170055-1030571116-1030863516-1031185468-1031641540
776-1032194257-1032390143-1032622141-1033040672-1033600143-1033860329
782-1034248010-1034855673-1035339998-1035655195-1035852446-1036085872
788-1036663984-1037145581-1037467533-1037711676-1037997387-1038434754
794-1038932393-1039302603-1039605785-1039859346-1040098098-1040387901
800-1040705761-1041055902-1041443582-1041895692-1042251158-1042578437
806-1042982290-1043477201-1043847476-1044027190-1044098309-1044359923
812-1044739486-1045120476-1045404888-1045783216-1046136019-1046401596
818-1046699387-1046860331-1047044137-1047388886-1047714865-1047897307
824-1048102546-1048530495-1048875245-1049170373-1049425233-1049650606
830-1049999317-1050273077-1050396416-1050471562-1050633934-1050985373
836-1051476323-1051826528-1052059825-1052206090-1052356317-1052742634
842-1053065950-1053318148-1053581061-1053826569-1053924512-1053982186
848-1054216912-1054486516-1054634145-1054646225-1054655578-1054888940
854-1055279348-1055665665-1055853498-1056073545-1056200910-1056196948
860-1056282746-1056394068-1056579238-1056824680-1056889110-1057029919
866-1057326412-1057708767-1057873737-1057935374-1058025263-1058221214
872-1058380794-1058328445-1058312338-1058698720-1058718854-1058836931
878-1059125305-1059279559-1059408353-1059471418-1059516947-1059675293
884-1059883260-1059938207-1059863126-1059974448-1059915410-1059793370
890-1059742385-1059816168-1059609565-1059455311-1059592093-1059754466
896-1059641779-1059394908-1059229938-1059219221-1059239355-1059196424
902-1059050159-1058838230-1058540374-1058375468-1058442496-1058210433
908-1058274862-1058446523-1058441132-1058700084-1058725544-1058622275
914-1058694693-1058928120-1059499606-1059920800-1059746412-1059733033
920-1059686010-1059628335-1059678021-1059895275-1060209239-1060433183
926-1060460072-1060670702-1061074425-1061441972-1061553359-1061678061
932-1061616360-1061572129-1061797503-1062013458-1062166348-1062324629
938-1062533895-1062527270-1062370288-1062323330-1062524542-1062491028
944-1062494990-1062381005-1062041646-1061986634-1061908825-1061692805
950-1061515754-1062134263-1062696267-1063201960-1063680894-1063639262
956-1063039718-1062313977-1061717031-1060957777-1060152863-1059459273
962-1059047496-1059030090-1058816797-1058504197-1058261418-1058150095
968-1057779886-1057457868-1057315630-1057220480-1057189629-1056973673
974-1056508119-1056005024-1056198247-1056123166-1055779716-1055637542
980-1055479196-1055204267-1054811196-1054465082-1054644861-1054695781
986-1054524121-1054334925-1054493270-1054538864-1054552309-1054521393
992-1054198142-1053992968-1053927175-1054105525-1054588550-1054434297
998-1054214249-1054164628-1054187425-1053752786-1053979523-1054389936
1004-1054611348-1054858089-1055005653-1055001626-1055072745-1055071446
1010-1055188160-1055436330-1055571814-1055756918-1055868306-1055884348
1016-1055882985-1055856161-1055840053-1055715351-1055566423-1055267268
1022-1054811196-1054432933-1053968742-1053551574-1053187990-1052809792
1028-1052385804-1052012932-1051711049-1051356947-1050955887-1050667448
1034-1050212610-1049622483-1049209342-1048824260-1048385594-1047988496
1040-1047637056-1047199755-1046861760-1046699387-1046449918-1046036777
1046-1045836864-1045705407-1045631625-1045784515-1046058146-1046282220
1052-1046640414-1046834871-1046813438-1047096486-1047493584-1047855740
1058-1048428525-1048860501-1049013391-1049450758-1049953788-1050662057
1064-1051363637-1052029039-1052518690-1052947938-1053597169-1054399354
1070-1055039232-1055744838-1056414203-1056902554-1057547693-1058302985
1076-1059032752-1059800060-1060580747-1061254139-1061844396-1062406465
1082-1063049070-1063789554-1064578295-1065206092-1065789659-1066299379
1088-1066622695-1067064024-1067542893-1067985586-1068457765-1068895132
1094-1069318989-1069674520-1070017906-1070424357-1070660511-1070901927
1100-1071242649-1071446589-1071744381-1072133425-1072397703-1072535785
1106-1072767912-1073045569-1073215931-1073376874-1073517749-1073548665
1112-1073501642-1073528465-1073689474-1073729742-1073741823-1073708244
1118-1073466764-1073253471-1073083110-1072869882-1072706146-1072361461
1124-1071885190-1071441199-1070895237-1070376035-1069895867-1069302882
1130-1068472574-1067459758-1066412066-1065326833-1064170545-1062952491
1136-1061641885-1060229373-1058839594-1057417665-1055971575-1054521393
1142-1053006912-1051428066-1049896113-1048321229-1046644375-1044899195
1148-1043162004-1041434165-1039605720-1037816309-1035978512-1033963663
1154-1032013179-1030035936-1027923079-1025786126-1023574092-1021398300
1160-1019218351-1017045156-1014811689-1012529835-1010099118-1007735558
1166-1005463122-1003237643-1001132840-999060317-997014617-995048026-993215619
1173-991466347-989794884-988154336-986548537-985118554-983816001-982584568
1180-981488618-980457098-979492540-978553507-977783536-977228157-976767993
1187-976424672-976195272-976023547-976010103-976083885-976200598-976483646
1194-976743832-977039025-977366303-977684294-978073274-978491805-978993536
1201-979652119-980422155-981134451-981822651-982376666-982938800-983621544
1208-984337867-985038082-985692768-986350052-987024808-987742495-988460116
1215-989180531-989937122-990601096-991215449-991848637-992442985-993019798
1222-993644867-994271365-994825316-995454477-996243218-997029296-997851615
1229-998724920-999551331-1000431326-1001418616-1002460918-1003542124
1235-1004691787-1005802545-1006991047-1008097714-1009135989-1010155494
1241-1011197861-1012118058-1012977919-1013800238-1014445507-1015033101
1247-1015521322-1015906340-1016259078-1016432232-1016485815-1016523356
1253-1016402681-1016175944-1015903612-1015517296-1015108117-1014622558
1259-1014173175-1013737238-1013218100-1012688181-1012116695-1011472790
1265-1010748413-1010096455-1009436443-1008859696-1008461298-1008090959
1271-1007810574-1007558442-1007249869-1007054048-1006902457-1006830039
1277-1006848809-1006882323-1006945388-1007129194-1007363920-1007677818
1283-1008103105-1008552422-1008995114-1009596088-1010386193-1011113362
1289-1011924900-1012708315-1013401841-1014081922-1014770122-1015454295
1295-1016115606-1016747430-1017379254-1017934568-1018404150-1018805210
1301-1019147297-1019357926-1019628894-1019954808-1020126533-1020280787
1307-1020323718-1020127897-1020055414-1019988321-1019906616-1019901160
1313-1019840822-1019771002-1019615449-1019408846-1019188864-1019001031
1319-1018759616-1018461825-1018100968-1017643532-1017058601-1016448210
1325-1015811060-1015030308-1014123554-1013199330-1012193204-1011134730
1331-1010036117-1008874374-1007719451-1006359223-1004891635-1003320843
1337-1001555399-999745854-997851680-995907951-993985590-991984186-989933030
1344-987898112-985738363-983508922-981257919-978970739-976692912-974326624
1351-972059513-969858196-967634082-965409902-963213976-961009931-958834138
1358-956722711-954581731-952436724-950298473-948186980-946013850-943777591
1365-941627258-939517194-937382904-935256668-933188237-931189430-929154512
1372-927213316-925354085-923535123-921677191-919694492-917788303-915540028
1379-913124054-910399572-907506093-904218179-900617665-896714033-892391871
1386-888091141-883638885-878942486-874052929-869074716-863817547-858513420
1393-853098035-847681157-842145032-836547075-831009587-825296346-819495878
1400-813529076-807194793-800910065-794527395-787791986-781021635-774143988
1407-767234126-760140588-753056338-745918440-738930835-731858665-724930098
1414-718114153-711492664-704926318-698523513-692368944-686284129-680238090
1421-674351825-668633258-663054137-657556851-652251425-647104215-642163672
1428-637427005-632796204-628334596-624037893-619875310-615867111-612018427
1435-608379138-604919434-601547150-598251117-595121483-592128762-589207030
1442-586481120-583982141-581556750-579225275-577052080-574974231-573181963
1449-571550768-570153000-568995414-568085802-567464760-566858461-566547160
1456-566143372-565723541-565394964-565194986-564934736-564690657-564437031
1463-564136577-563903215-563715383-563524887-563365177-563201636-563062060
1470-562894427-562752254-562548249-562305534-562031839-561788995-561410796
1477-560956023-560422077-559779537-559095429-558357608-557591664-556829682
1484-556063738-555414443-554785281-554211197-553684006-553219815-552749000
1491-552516872-552425683-552392170-552507519-552700742-552974438-553285608
1498-553760451-554152223-554527694-554931612-555311109-555828947-556396407
1505-557021541-557806255-558482310-559130306-559817077-560471698-561189385
1512-561958057-562728092-563522289-564321747-565137312-565959631-566742981
1519-567637784-568528495-569568069-570707015-571960012-573297377-574782372
1526-576358620-578118543-580039541-582120183-584361638-586754945-589424350
1533-592033417-594686845-597461012-600295453-603101770-605985897-608795007
1540-611444342-613948842-616252129-618415841-620330148-622083382-623628715
1547-624913926-626001757-626767766-627250727-627633017-627749665-627761811
1554-627717515-627630224-627568587-627433039-627398291-627315156-627559170
1561-627928080-628538536-629465424-630357498-631370249-632389753-633492458
1568-634603151-635730082-636970803-638254585-639632349-641204440-642563434
1575-643914243-645196727-646358340-647530800-648726057-649815317-650763768
1582-651789897-652810766-653858459-654908814-656051787-657198657-658440872
1589-659829223-661135802-662441018-663813391-665142767-666607692-668165040
1596-669776166-671452955-673227687-675084320-677012007-679088557-681068463
1603-683107538-685071401-686950766-688828767-690714952-692540604-694297930
1610-696071298-697834079-699537692-701238642-702875163-704429913-705988689
1617-707562274-709043242-710457052-711865602-713170882-714515002-715873931
1624-717254292-718660114-720033786-721457014-722760996-723988402-725187621
1631-726317149-727433234-728530547-729555378-730506427-731464295-732361760
1638-733318135-734384598-735269983-736156667-736820771-737261969-737706156
1645-738037461-738355321-738638369-738859715-739012670-739136074-739231354
1652-739258113-739299680-739130683-738905310-738395525-737641661-736759004
1659-735684488-734454353-733070029-731533985-729901491-727839685-725533669
1666-722886997-719886157-716513744-712815351-708612565-704032879-699187552
1673-693985395-688594041-683123645-677437228-671821800-666386281-660756175
1680-655293832-650062123-644865292-640064325-635673706-631631863-628199177
1687-625155406-622540883-620442770-618749939-617468754-616736389-616311168
1694-616013312-615795992-615572048-615212490-614729529-614321714-613732886
1701-613158737-612720071-612104290-611481883-610825833-610030467-609028369
1708-607790180-606246212-604240651-601862283-599026479-595887427-592359396
1715-588516168-584136330-579877233-575257279-570858606-566512347-562270592
1722-557884129-554170929-550692584-547835281-545530565-543684779-542335333
1729-541648497-541428482-541690064-542233330-542940268-543973152-545113462
1736-546338141-547654138-548963381-550257880-551458527-552753026-554209833
1743-555741786-557411885-559085946-560662324-562270656-563893798-565355995
1750-566684008-567731765-568566101-569311910-569794871-570339534-570876078
1757-571227517-571741328-572273845-572790255-573432796-574252453-575117768
1764-576101097-577340584-578504925-579659849-580927589-582206045-583526069
1771-584860772-586084151-587420218-588689257-589818720-590859658-591741017
1778-592543267-593254264-593876735-594376973-594834409-595464869-596221525
1785-596927131-597568308-598186688-598766228-599431631-600157306-600755617
1792-601359253-601992506-602455268-602876462-603462692-604122639-604988020
1799-605724412-606318630-602719545-603916101-604981135-605930950-607063206
1806-608070565-609324861-610949366-612369931-613830700-615270100-616553947
1813-617720951-618859962-619871349-620944501-622100854-623078661-623890394
1820-624825335-625755081-626539730-627509614-628643104-629720219-630808245
1827-631898869-632969294-634120320-635327593-636510769-637732785-639099767
1834-640286905-641456767-642520437-643472915-644403894-645230241-646079319
1841-647000946-647850024-648401377-648777042-649139198-649182194-649404774
1848-649965609-650054070-649961517-649728090-649246558-648534197-647744093
1855-646898976-645789582-644520543-643016843-641333299-639455298-637408235
1862-635049871-632635261-629803483-626791927-623627416-620020277-616158213
1869-611815981-607194663-601950873-595933151-589390771-582307950-574538228
1876-566305745-557653365-548542186-538995069-528719452-517981170-506428589
1883-494029528-481020044-467227209-452912574-437711255-421447337-404652363
1890-386625956-368741658-350319419-331705451-312550814-293388124-274084657
1897-254398819-234902112-215459150-196013299-176458804-157135170-137873173
1904-119267355-101022192-82900448-65512555-48443842-31795137-15716470+0
1912+15264411+29922649+44064244+57838332+71114709+84242019+96912104+109287037
1920+121592149+133112693+144375317+155537716+166068178+175935980+185587779
1927+194688095+203207735+211487225+219263458+226625463+233584962+239846795
1934+245483639+250632084+255257412+259262884+262803125+265849608+268076466
1941+269934252+271323950+272024247+272415954+272355746+271629909+270449476
1948+268708274+266616834+264092331+261146357+258106694+254734134+251081352
1955+247419380+243596188+239541064+235166406+230550576+225950594+221117428
1962+216384788+211755400+206981111+202044579+196967254+191861611+186848650
1969+181806106+176724656+171698300+166555084+161575491+156800049+151938680
1976+146713595+141599899+136415229+131246740+126465615+121602947+116536273
1983+111490952+106381485+101151083+95977065+90847448+85545935+80404205+75125595
1991+69952917+64954578+59673366+54547568+49671459+44834218+40068015+35639848
1999+30979656+26242927+21413736+16687809+11890725+7086962+2563586-1754564
2007-5860771-9694645-13515044-17217445-21025891-24337887-27472904-30196133
2015-32540872-34573190-36349318-37818299-38832324-39406465-39423851-38765179
2023-37650601-36027394-33746945-30915145-27497103-23160134-18663522-13504390
2031-8343811-2975372+2275143+7238551+12165769+16558972+20265458+23208686
2039+25431343+26931241+27742714+27687668+26755414+25282500+22999266+20070921
2047+16647499+12778735+8428441+3830013-897251-5894251-11019902-16260990
2055-21813386-27769363-33537563-39505772-45382615-51082424-56954088-62979998
2063-68891625-74647798-80186659-85610259-90797576-95997021-101224654-106130490
2071-110919392-115461586-119790520-123852497-127633943-131298797-134861730
2078-138130793-141241689-144093519-146608914-148863814-150984757-152917754
2085-154729864-156377296-157839428-159197090-160354709-161134162-161977802
2092-162895434-163434771-163900114-164350958-164242184-163823734-163669366
2099-163316645-163234841-163533964-163560820-163511053-163394356-163139610
2106-162934403-162792165-162547973-162204587-161858571-161786137-161578170
2113-161413135-161191870-160600217-160134629-159677323-159284284-158790639
2120-158355984-157686506-156912557-156063430-155114979-153985548-152678855
2127-151306547-149903421-148277568-146234596-144073483-141413430-138491698
2134-135531078-132543732-129122923-125373514-121547805-117389176-113203901
2141-109038680-104630817-99825604-95164074-90474243-85643716-80634726-75987956
2149-71049971-65784813-60647025-55080098-49369507-43314200-37492291-31602050
2157-25665965-19729993-13913467-7844761-2144933+3215563+8584002+13952552
2165+18964178+23870015+28404043+32407026+36344122+39792973+42619501+45302347
2173+47515765+49312011+51204727+52762197+54143983+55037264+55572541+55880992
2181+55832666+55513527+55003786+54105010+52671033+51147048+49519872+47483619
2189+45164159+42439739+39519411+36515758+33808709+31152737+28378506+25651305
2197+22894704+20412999+18009021+15866835+13605091+11362167+9119279+6966328
2205+4787692+2492468+438697-1376147-3486301-5758845-7811170-9948048-11977731
2214-13980650-15367561-16955763-18646114-20068100-21766357-23464650-25012653
2222-26299086-27325360-28232077-28910926-29494531-30087490-30174568-30184032
2230-29510602-28202716-26617150-24657286-22184937-19279381-15987393-12193720
2238-7917178-3387122+1985400+8174888+14709090+21869843+29593932+37320769
2246+45759641+55054638+64372533+73786866+83673406+93652483+103693253+114160617
2254+124413291+134001894+143047418+152155788+161047082+169304977+177548372
2261+184796213+190982948+196901509+202269952+207189224+211437442+215472416
2268+219118817+222355649+224731306+227654385+230390964+233378294+236911732
2275+240021183+242882447+245747950+248091392+250206781+252374617+253795150
2282+254701984+255524483+255320591+254630979+254223083+253563314+253317677
2289+253119193+252090254+250806456+249458292+247833869+245777355+243779929
2296+241889880+239616031+237738095+236562940+234585697+231992688+230055616
2303+227824714+226421474+225942686+225074578+224339485+223674228+223329511
2310+222652109+222160997+221137579+219559967+217636177+215239136+212809734
2317+210139030+207304476+204070274+201300020+198512618+196388915+195003309
2324+193106505+191664426+190599375+189684422+189638828+189636052+189083400
2331+188485171+187927097+186914379+186643314+186494467+185965945+186510542
2338+186412583+186208659+186989574+187546203+188684970+189999701+191123741
2345+192690588+193655211+194191674+195110654+195480749+195283580+194983142
2352+194307185+193259428+192276099+191373211+190343070+189353020+187779484
2359+186442199+185705775+185375736+185680136+186124242+186766717+187177293
2366+187578337+188226349+188942607+189220362+189896432+190748369+190430264
2373+190596729+190667751+190183458+190733479+191038106+190982948+191397437
2380+191537045+192148718+192866421+192803323+192482735+191869730+190855567
2387+190467821+190966873+190846198+190831471+191626755+191845536+192218376
2394+192976396+192482735+192549762+193358605+193298283+194500392+196704340
2401+198572940+200915148+202393371+202479104+202653752+203267943+204899267
2408+206962405+208291668+209289870+211229589+213892272+216815351+219796219
2415+221686154+224394529+226842685+227608791+229871761+231677247+231799481
2422+234565546+238278747+240136532+242588732+245097306+246657415+248727145
2429+252264789+256109316+259764680+264092185+269126708+274807832+280759825
2436+286820544+292202317+297352288+301533641+304747676+309422609+313402686
2443+317392180+324241704+330810908+336616669+343407024+348999493+352901922
2450+357602478+362276145+365574581+369413848+372029767+374938022+379835731
2457+383264325+387669785+391035411+391735756+393208508+394782222+398693777
2464+405008154+410296109+413916660+415793362+415078370+414091048+417305083
2471+420820968+422703159+426244634+428691524+429772633+432142915+435076630
2478+432620388+435880244+438201003+438573940+439766469+440690564+440100469
2485+440127326+441710263+443782787+446593066+451139335+456831013+458481108
2492+458695667+460169978+461200232+462520126+464299047+469407288+475199702
2499+480020803+483806357
##END=
