##TITLE= TSR_2002_23_FORS_00006.asd.sco | Av. of  3
##JCAMP-DX=4.24
##DATA TYPE=INFRARED SPECTRUM
##SAMPLING PROCEDURE=
##ORIGIN= ASD Instrument
##XUNITS=NANOMETERS
##YUNITS=REFLECTANCE
##RESOLUTION=1
##FIRSTX=350
##LASTX=2500
##DELTAX=1
##MAXY=1
##MINY=0.0099999998
##XFACTOR=1
##YFACTOR=9.3132258e-010
##NPOINTS=2151
##FIRSTY=0.017407665
##XYDATA=(X++(Y..Y))
350+18691338+17452370+17043388+16404268+15270454+14716809+14850167+14706435
358+13964825+14240062+14422631+14203347+13645550+12944668+12273091+11959155
366+12244452+12270753+11959509+11423692+10871311+11067162+11179158+10850625
374+11253164+11475220+11296501+10868080+10737418+10760066+10900918+11128739
382+10874651+10860747+11218973+11345898+11362260+11437748+11629644+11724933
390+11877825+12005925+12031143+12205638+12370254+12499395+12650571+12761002
398+12868807+13075123+13533355+13759944+13830588+13921669+14103105+14241668
406+14453722+14866440+15161157+15307149+15418150+15692221+16119066+16464961
414+16687201+17127852+17416708+17605288+17835854+18098908+18498178+18898870
422+19086564+19358476+19643008+19946450+20409492+20697964+20900570+21162804
430+21516140+21854474+22163854+22466432+22744748+22977818+23204346+23510550
438+23820466+24131944+24439122+24704292+24886976+25060304+25301618+25484890
446+25712550+25972426+26151496+26263438+26407028+26600120+26674618+26733038
454+26818816+26935262+26992718+27041464+27103856+27171262+27215016+27246178
462+27275428+27301300+27310902+27315714+27328382+27330128+27321390+27290054
470+27220568+27217744+27189524+27096900+27073140+27020444+26919600+26788990
478+26685252+26585134+26489136+26414270+26239688+26039826+25870656+25677292
486+25498060+25334544+25177150+25037366+24863030+24665820+24518704+24362532
494+24208280+24074060+23965728+23864766+23767876+23674304+23552262+23437418
502+23342404+23247590+23146598+23043614+22936682+22792690+22646630+22495608
510+22319320+22126526+21921360+21705308+21476890+21212470+20942440+20690250
518+20409234+20109200+19802190+19502426+19231114+18977822+18729194+18473710
526+18235298+18029100+17855776+17669604+17527296+17436440+17362502+17326434
534+17325118+17350844+17393560+17472986+17581804+17702722+17836882+17983944
542+18138816+18291044+18437878+18560976+18648466+18718900+18750686+18743522
550+18711164+18671300+18607550+18525102+18467524+18401782+18337434+18292420
558+18271318+18245548+18201104+18137446+18066572+17994328+17922920+17851418
566+17767048+17665346+17546728+17412268+17303378+17243798+17233270+17260524
574+17337624+17468158+17605530+17806190+18068738+18357054+18681568+19044096
582+19442584+19864416+20373966+20943870+21521812+22105650+22771910+23524028
590+24292418+25102106+25944266+26796410+27601936+28428726+29306526+30237342
598+31179888+32179598+33225124+34215656+35223012+36258480+37307368+38317824
606+39350808+40425484+41521692+42549812+43577656+44646892+45707084+46694180
614+47645084+48624784+49612784+50556328+51471284+52437536+53409404+54350956
622+55258392+56207140+57210828+58216136+59154256+60114308+61129144+62169508
630+63138068+64171564+65245580+66309428+67376984+68461472+69574656+70723416
638+71897120+73105472+74351152+75620464+76949112+78281688+79575496+80987088
646+82444856+83897624+85334832+86925600+88608632+90289440+91881000+93628920
654+95507384+97383352+99294832+101275160+103352064+105549480+107766376
661+110016800+112340064+114755256+117283392+119883104+122496208+125245768
668+128111176+131070696+134127256+137257728+140460960+143765392+147271232
675+150801136+154345920+158022944+161867440+165838640+169899504+174041888
682+178351680+182754784+187175824+191779600+196435120+201152224+206055632
689+211112384+216260800+221446784+226653920+232026560+237581536+243255104
696+248889424+254505696+260199920+266119584+272102240+278126080+284178656
703+290206592+296266656+302366816+308492032+314569280+320823744+327202464
710+333398720+339514880+345657024+351853056+357981568+364099424+370113312
717+375946560+381832672+387727648+393617312+399510048+405366560+410955264
724+416264224+421790208+427445568+432950432+438083584+443294432+448375040
731+453290912+458174752+463034976+467708928+472238912+477095104+481442208
738+485475552+489626240+493760320+498125824+502583584+506725344+510183168
745+513683072+517492128+520983680+524487008+527882496+531057088+534247840
752+537514175+540751295+543788223+546660799+549613823+552646207+555460991
759+558119615+560744575+563410111+566000063+568667327+571297215+573702079
766+575876415+578190079+580739711+583350079+585552575+587690751+589936063
773+591952575+594014015+596262079+598604991+600367103+602113919+604057087
780+606110527+607738367+609602239+611827199+613850111+615616063+617228095
787+618885759+620938495+622816511+624425407+625894463+627472767+629280767
794+631151295+632785215+634324607+635850623+637385855+638884863+640434303
801+642045567+643714495+645424383+646930367+648373695+649977407+651778623
808+653319167+654541439+655676671+657014847+658510207+660040063+661469439
815+663007039+664538815+665974207+667359999+668485887+669667839+671159679
822+672648767+673864383+675065791+676589311+677997951+679349311+680660159
829+681931455+683417983+684785983+685871039+686793471+687997311+689524543
836+691191807+692588671+693818623+694993407+696233023+697684543+699091007
843+700436671+701793151+703201727+704257791+705179711+706475135+707725119
850+708827263+709791807+710729023+712011839+713556223+715125439+716414655
857+717715135+718844479+719756479+720828607+721934335+723179071+724532415
864+725467775+726580735+727996223+729562431+730820863+731888063+732965887
871+734209407+735401471+736174847+737024767+738701183+739763135+741020159
878+742538559+743696639+744953791+746079679+747124671+748465471+749954943
885+751182207+752153535+753443903+754514623+755559487+756739327+757936575
892+758856703+759858303+761195199+762597695+763606591+764404927+765333311
899+766617727+767899967+768985087+769831103+770615679+771381567+772331327
906+773515199+774360831+775706175+777129919+778121215+779652927+780863743
913+781807231+782880063+784104319+785993919+787734143+788462783+789531455
920+790473535+791345471+792406591+793681279+795132031+796524927+797674495
927+798886591+800616511+802376767+803524287+804736639+805695295+806710591
934+808178239+809668351+811110527+812557823+813994111+814898047+815921279
941+817168319+818465663+819626175+820737407+821609663+822231039+823410815
948+824472895+825236607+826137663+828673343+831073535+833352127+835602751
955+836883391+836974271+836832383+837050879+836937727+836889279+837104767
962+837753727+838984703+839927743+840679487+841471743+842435455+843313151
969+844099839+844845695+845654975+846969151+847745407+847844543+848030847
976+849301439+850214271+850704127+851444607+852314687+852841727+853099199
983+853564031+855028735+856359551+857309887+858132735+859373887+860521151
990+861684223+862807487+863520703+864020735+864959999+866647807+868725567
997+869353407+869779647+870735935+872169535+866707455+868279039+870313471
1004+871930815+873542271+874960191+876161279+877395647+878371071+879612543
1011+881117503+882382463+883654591+884888191+886022399+887052415+888027903
1018+889045055+889881343+890674047+891111295+891301823+891559359+891488063
1025+891618431+891893887+892130559+892337791+892558271+892893375+893103359
1032+893179519+893398335+893350655+893051647+893063359+893137919+893091391
1039+893136127+893194495+893061759+893081471+893315199+893499903+893432767
1046+893733951+894228863+894805055+895672127+896816959+897877247+899170367
1053+900166847+900850239+901964031+903179391+904406079+905894527+907302015
1060+908388287+909901567+911557503+913612415+915631679+917468543+919066111
1067+920613759+922455423+924486015+926311807+928235519+930152831+931863743
1074+933744831+935800319+937775871+939726463+941778303+943595199+945257343
1081+947101567+949061887+951116095+953463295+955445567+957249599+958984063
1088+960512511+962107583+963660671+965237631+966829311+968397183+969992703
1095+971493439+972965503+974636415+975959103+977279999+978718655+979823871
1102+981129535+982652671+983949695+985027135+986275455+987632383+988798015
1109+989917823+991093247+992062143+992789375+993773631+995046399+996017855
1116+997061631+997970815+998363327+998972607+999701951+1000349247+1001106623
1123+1001551935+1001722111+1002064575+1002238847+1002633727+1003206015
1129+1003530815+1003558399+1003262719+1002898175+1002672639+1002279231
1135+1001754687+1001226815+1000535487+999932223+999276927+998528127+997746175
1142+996837951+995728767+994802559+993881855+992789375+991607231+990381247
1149+989177663+987801343+986501695+985216127+983653439+982285951+981036927
1156+979531391+978047359+976462719+974889599+973240319+971709183+969992703
1163+968164735+966136447+964138623+962350207+960668351+959144511+957717631
1170+956300159+954903935+953660287+952458751+951247167+949991743+948659583
1177+947508095+946408703+945428607+944632447+943751807+942941119+942117695
1184+941424575+941103551+940875839+940730047+940686591+940592063+940743871
1191+940961151+941144063+941712895+942274431+942792383+943332479+943840127
1198+944421247+944977919+945710015+946687231+947922623+949090047+950112063
1205+950942975+951799039+952750975+953885631+955080703+956159423+957354879
1212+958627391+960046847+961523071+963094335+964818879+966463743+968139007
1219+969862911+971599295+973264127+975075455+976872127+978506687+980422719
1226+982641215+984756223+986963967+989129343+991031807+993061695+995246655
1233+997452927+999718143+1002071551+1004347583+1006746623+1008962047+1010994559
1240+1013049919+1015102079+1017004543+1018876735+1020665535+1022114687
1246+1023590719+1024860351+1025986047+1027180095+1027938431+1028491647
1252+1029130943+1029449279+1029608447+1029747455+1029780671+1029694719
1258+1029421055+1029316735+1029278463+1029021631+1028857727+1028476543
1264+1027807615+1027084223+1026460351+1025737983+1025235583+1024943103
1270+1024627647+1024577983+1024583039+1024447423+1024505343+1024581567
1276+1024807551+1025119743+1025544767+1026072063+1026826303+1027736191
1282+1028701631+1029865471+1031015103+1032039231+1033448447+1035246271
1288+1036907199+1038763263+1040528255+1042106431+1043614207+1045169471
1294+1046808511+1048419007+1050029631+1051743295+1053330879+1054803775
1300+1056217471+1057524223+1058537471+1059875583+1061448639+1062719039
1306+1064173183+1065235839+1065686271+1066496511+1067337727+1068104127
1312+1069085951+1069888959+1070549951+1071123263+1071623807+1072098879
1318+1072686847+1073144831+1073497151+1073693823+1073741823+1073548479
1324+1073350079+1073132607+1072671295+1071980863+1071324799+1070599103
1330+1069713919+1068733183+1067715711+1066644799+1065325887+1064039167
1336+1062405567+1060356671+1058310847+1056104127+1053771263+1051639167
1342+1049392063+1047103871+1044891071+1042501311+1040095359+1037668863
1348+1035224767+1032803199+1030296639+1027892223+1025633983+1023214463
1354+1020726783+1018273343+1015730431+1013220735+1010824639+1008323967
1360+1005749311+1003171391+1000657087+997906047+994970431+992173055+989439487
1367+986514559+983576703+980568447+977555967+974351615+971299647+968408191
1374+965564479+962769535+959939967+957329919+954335039+951245759+947791679
1381+944262847+940107391+935589247+930625727+924989503+919585407+914118783
1388+908304127+902342271+896260799+889820735+883346943+876787135+870246271
1395+863608063+856862143+850264639+843360127+836327231+829035391+821143359
1402+813325951+805399871+796940799+788446463+779841407+771142591+762192511
1409+753208895+744143679+735251775+726186367+717380159+708741887+700345791
1416+692057791+683911999+676083711+668208639+660388543+652537791+644730623
1423+636986943+629099583+621498175+613940991+606753855+599781631+593050367
1430+586489343+580329663+574413887+568822399+563563135+558669567+554079935
1437+549677119+545486911+541576511+537915391+534435552+531291296+528455520
1444+525940544+523589760+521808064+520323552+519544512+519264736+519527584
1451+520443712+521731488+523652608+525640992+528227232+530557696+533013856
1458+535361824+537777983+539946559+542016063+543932287+545624703+547268479
1465+548801215+550270783+551633023+552922111+554153919+555285503+556313279
1472+557261823+558090175+558889727+559700927+560331263+560848511+561272319
1479+561559679+561777471+561951167+562112447+562300031+562478143+562807999
1486+563149695+563502975+563903103+564282303+564592959+565148927+565790271
1493+566501695+567385983+568293119+569267967+570206399+571234495+572206015
1500+573104447+574059583+575035071+576076863+577129215+578228159+579439167
1507+580560639+581660095+582779327+583874111+584997503+586143743+587287743
1514+588418623+589591295+590829183+591993279+593090175+594290431+595442239
1521+596720383+598160319+599571647+601008895+602475647+603916095+605486975
1528+607139135+608867007+610669567+612571455+614669567+616651647+618595839
1535+620664895+622765439+624794815+626962815+629038911+630930687+632774975
1542+634464447+636081407+637522687+638830527+639999871+640988351+641891839
1549+642517055+642899967+643249535+643354303+643380223+643439423+643516287
1556+643595903+643672639+643732031+643691199+643934911+644226559+644790143
1563+645667327+646456767+647351743+648170751+649005439+649851647+650629567
1570+651650239+652748863+653949055+655426239+656627583+657795391+658905407
1577+659883519+660895935+661921727+662855487+663618623+664573375+665572223
1584+666650047+667866751+669097599+670325183+671639679+673107007+674436351
1591+675747391+677102719+678363967+679765759+681259903+682797375+684367167
1598+686082687+687910335+689776319+691794559+693731071+695748543+697649599
1605+699454591+701255487+703012863+704746559+706421503+708154751+709911999
1612+711592127+713299519+714923839+716417151+717969407+719578943+721068479
1619+722485951+723900671+725188735+726532351+727920575+729327999+730719807
1626+732187455+733779647+735224831+736655679+738027903+739272767+740569599
1633+741904383+743120191+744247807+745387199+746414399+747638335+749100351
1640+750280319+751483007+752409471+753026687+753670975+754222079+754745727
1647+755151743+755582975+755972351+756402367+756877759+757284287+757746879
1654+757978751+758217279+758037631+757553087+756953983+756041983+755079807
1661+754009407+752805055+751506687+749800639+748039999+746023359+743614847
1668+740954111+737897407+734253119+730377279+726257727+721765375+717152511
1675+712489791+707540863+702724671+698119231+693099967+688151551+683353407
1682+678333951+673636287+669233279+664972415+661227967+657790463+654641983
1689+651816127+649240191+646978367+645207103+643791423+642497023+641232319
1696+639969727+638602111+637115199+635805375+634361535+632917567+631758143
1703+630428991+629124543+627913471+626601471+625196159+623719231+621973055
1710+619813375+617385983+614502847+611507263+608357439+604834495+600852799
1717+597068223+592988223+589128383+585515839+581728191+577691199+574156799
1724+570694079+567705279+565064511+562757439+560687551+559330623+558469439
1731+558178047+558208511+558489343+559267519+560308159+561503935+562850175
1738+564132159+565279103+566278143+567257599+568312511+569383743+570482047
1745+571518015+572463743+573457279+574515263+575457023+576315327+576948671
1752+577370815+577722303+577851583+578081535+578309695+578425919+578720959
1759+578881151+579096639+579498367+579994367+580638399+581459199+582584575
1766+583680127+584780735+586106559+587489151+588880639+590421183+591762303
1773+593193087+594639871+595881279+597038655+598022207+598834687+599520895
1780+600102399+600572927+601016895+601637183+602449087+603177151+603835839
1787+604503103+604979135+605495743+606018047+606386943+606939199+607509567
1794+607831039+608021183+608312703+608759871+609439935+610016447+610322367
1801+607558719+608594303+609481407+610133055+611091135+611985343+613140351
1808+614735871+616070399+617357759+618763711+620063039+621266431+622471871
1815+623663231+624878015+626123903+627253119+628292095+629436671+630582911
1822+631568511+632810623+634219647+635651775+637264319+638715647+640199423
1829+641629119+642942847+644230079+645620543+647130495+648486079+649845951
1836+651144319+652347199+653527871+654658367+655797183+656951871+658107135
1843+658948031+659650751+660318207+660655743+661175423+662067135+662436223
1850+662625599+662605567+662294527+661818047+661306239+660743999+659989119
1857+659225535+658089407+656735487+655245311+653565823+651545471+649589823
1864+647141119+644616575+641966527+638906047+635731647+632033919+628130559
1871+623509759+618107263+612189695+605598143+598430463+590843391+582856959
1878+574563519+565999615+556845375+547432959+537418367+526785952+515807072
1885+504410048+492767392+480429248+467505312+454242784+440154016+426564160
1892+412880320+399430080+385873120+372547520+359436352+346361984+333719872
1899+321381152+309402880+297628000+286368320+275463776+265194592+255421456
1906+245952336+237128704+228776944+220902880+213566304+206635280+200107232
1913+194063856+188415744+183080864+178134880+173413632+168990320+164807104
1920+160811168+157222224+153812416+150534864+147584144+144936736+142399568
1927+140127392+138126336+136219504+134509936+132968696+131573472+130406832
1934+129415440+128555856+127848112+127294424+126859264+126596392+126551904
1941+126615352+126822936+127172664+127589952+128118128+128792816+129556384
1948+130434328+131385192+132465520+133641936+134841360+136125600+137442800
1955+138745152+140094672+141516976+143003216+144523248+146024384+147556768
1962+149039248+150534080+152093840+153709488+155381904+157057712+158719248
1969+160383184+162071872+163764176+165494576+167189728+168836800+170543344
1976+172372624+174161392+176016128+177904848+179659280+181452912+183314544
1983+185166096+187065360+189044832+190994400+192953920+194923104+196886272
1990+198864144+200798496+202733616+204710384+206632336+208542144+210433552
1997+212282320+214016016+215837424+217663664+219539984+221403872+223257360
2004+225084800+226788880+228388928+229929008+231350528+232710752+234061600
2011+235452816+236665232+237821392+238819184+239673232+240390368+241009072
2018+241528224+241875264+242037120+241968800+241620560+241173792+240548192
2025+239735072+238822432+237658896+236128544+234612720+232889168+231225904
2032+229513056+227872816+226297376+224670704+223196624+221916208+220800160
2039+219855280+219055088+218389904+217935440+217680256+217546800+217575264
2046+217803408+218155664+218569456+219143488+219780224+220484528+221284848
2053+222133072+223011744+224036624+225212048+226345856+227585408+228831792
2060+230017888+231329408+232769488+234138064+235492368+236834288+238193616
2067+239526080+240896736+242335776+243673648+244972400+246256432+247572176
2074+248754912+249825984+250902752+252011904+252931216+253855408+254701792
2081+255428912+256090400+256721552+257349856+257919888+258417776+258867136
2088+259306176+259669216+259850544+260136144+260514048+260745616+260944704
2095+261170064+261078144+260848672+260829184+260753344+260851632+261222800
2102+261437024+261624704+261816416+261959136+262149872+262371808+262621296
2109+262895936+263151152+263564800+264014624+264460400+264792208+264999616
2116+265265936+265555824+265896400+266197280+266542752+266776944+266965120
2123+267101168+267173136+267197808+267146480+267074880+266992272+266890288
2130+266561920+266137040+265494624+264683168+263950064+263223936+262348048
2137+261469024+260428288+259192464+257940352+256633824+255263360+253701600
2144+252291392+250946480+249512816+248030080+246759024+245297632+243617472
2151+242036528+240244880+238408480+236436544+234588144+232730272+230821360
2158+228881168+227060048+225157968+223411344+221881088+220272480+218628640
2165+217096128+215538416+214184064+213000672+211771424+210771296+209936544
2172+209141680+208601824+208163632+207651264+207230560+206814960+206568656
2179+206429808+206372112+206440768+206570192+206771600+207031600+207393168
2186+207818112+208282704+208829920+209469120+210214688+210952544+211695952
2193+212361024+213054624+213822544+214518624+215177536+215740256+216311312
2200+216771456+217288784+217831360+218406512+218903344+219521840+220296000
2207+220961424+221618784+222334944+223078640+223766608+224471072+225129296
2214+225769936+226263856+226782496+227326112+227777584+228368048+228941968
2221+229432400+229808240+230072288+230276336+230376224+230403728+230392912
2228+230215344+230022128+229527616+228767920+227917328+226881248+225689136
2235+224377936+222946928+221354528+219575440+217756304+215618512+213174864
2242+210644944+207969104+205042096+202111360+198944896+195524000+192196864
2249+188891824+185459552+182041360+178569344+174956432+171473008+168189728
2256+165057184+161892336+158796064+155878384+152944784+150244224+147769120
2263+145445152+143202768+141162400+139382368+137647904+135964400+134493344
2270+133263624+131985144+130867000+129690768+128457528+127307568+126194232
2277+125090920+124087232+123158704+122250888+121448672+120718176+119946992
2284+119306064+118739008+118122216+117549592+116961448+116317632+115723840
2291+115202680+114569328+113921384+113423456+112823672+112148528+111520328
2298+110740336+109708712+108872040+108100680+107241576+106431432+105524792
2305+104459992+103525408+102591752+101756832+100945440+100244120+99544208
2312+99083560+98779200+98690248+98909240+99181952+99597472+100101832+100806168
2320+101301680+101816904+102188048+102380768+102770864+103093496+103379592
2327+103653504+103700744+103816544+104068672+104335304+104719600+105180552
2334+105508232+105875304+106278664+106515256+106976384+107434368+107680552
2341+108005192+108154328+108313968+108563864+108620680+108746152+108895400
2348+108893232+109122208+109530144+109972120+110616856+111251912+111863608
2355+112591456+113372656+114157568+115064336+115804128+116371048+116854960
2362+117048568+117238840+117212104+117099888+117203032+117160424+117141824
2369+117295104+117288928+117367992+117648736+117785480+117901784+118000528
2376+117876896+117758680+117739144+117540440+117309760+117022864+116738792
2383+116730328+116696616+116651872+116566600+116301464+116008344+115754168
2390+115574088+115208760+114886304+114720048+114464464+114507280+114484592
2397+114237656+114153136+113858040+113311384+112825928+112312016+111824080
2404+111522512+111148408+110689464+110111184+109472584+108952088+108345936
2411+107542328+106732328+106049064+105359216+104761776+104015696+103286928
2418+102961768+102430744+101851424+101442032+100494392+99460440+98675080
2425+97804280+97098208+96540808+95905408+94946552+93860896+92828080+91819176
2433+90772920+89573152+88268776+87029456+86096360+85114728+84277912+83526712
2441+82391416+81575936+80786528+79514928+78380568+77263856+75992720+74918400
2449+74147808+73288384+72368176+71613520+70591336+69719400+68959304+68052696
2457+67380408+66567568+65860020+65292340+64793868+64492028+63844036+63150964
2465+62514952+61760616+61302500+61162476+60904916+60361072+60029520+59869640
2473+59589904+59309152+58818144+58006092+57250948+57284052+56926996+56621164
2481+56396316+56295568+56162908+56055560+56168892+56053116+55730356+55610220
2489+55353092+54863488+54526040+54256096+54194536+54034276+54046112+54292268
2497+53772684+53431444+53270516+53137840
##END=
