##TITLE= TSR_2002_23_FORS_00003.asd.sco | Av. of  3
##JCAMP-DX=4.24
##DATA TYPE=INFRARED SPECTRUM
##SAMPLING PROCEDURE=
##ORIGIN= ASD Instrument
##XUNITS=NANOMETERS
##YUNITS=REFLECTANCE
##RESOLUTION=1
##FIRSTX=350
##LASTX=2500
##DELTAX=1
##MAXY=1
##MINY=0.0099999998
##XFACTOR=1
##YFACTOR=9.3132258e-010
##NPOINTS=2151
##FIRSTY=0.030316286
##XYDATA=(X++(Y..Y))
350+32551864+29807294+29217676+27949232+25248890+23759748+23497800+22983350
358+21697976+21889462+22043990+21928168+21463112+19280476+17471144+16950322
366+17683660+17716416+16698280+15231509+14436819+14704089+14685942+13976398
374+14628229+14698218+14094220+13369361+13033428+13059222+13226605+13221879
382+12832321+12713052+12985969+13144631+12804482+12647860+12972299+12893260
390+12788753+12701995+12627518+12762922+12798400+12750866+12814461+12722903
398+12626558+12733081+13255219+13334240+13179575+13127638+13189173+13232655
406+13306011+13471471+13509360+13435425+13371695+13494146+13844277+13988791
414+13874555+14170477+14286162+14222534+14164052+14309042+14551838+14705692
422+14610236+14574471+14694039+14930657+15126141+15165086+15138303+15167355
430+15331677+15479213+15584542+15675393+15739203+15772374+15796268+15851696
438+15919177+15991080+16059423+16115279+16108181+16100715+16157046+16141221
446+16175067+16253072+16259725+16212561+16198886+16237175+16193089+16141793
454+16120008+16127107+16050640+16002562+15998047+15969814+15932510+15881006
462+15824295+15802054+15767253+15713505+15653756+15620196+15587507+15531588
470+15439181+15408952+15371975+15283953+15198003+15142479+15074967+14954126
478+14879373+14792280+14691551+14626370+14539907+14426539+14299524+14195494
486+14093272+13987156+13881747+13810713+13723786+13620560+13548999+13463922
494+13380797+13317999+13277068+13229920+13185451+13158754+13083563+13029411
502+13012262+12978026+12928490+12881527+12845564+12789241+12740513+12689010
510+12611210+12538776+12456821+12362467+12275608+12153875+12033742+11945966
518+11836053+11704971+11563571+11429858+11326230+11236663+11143962+11035171
526+10940591+10873287+10830599+10769314+10737418+10738282+10737418+10764470
534+10815741+10883684+10963450+11072282+11200809+11331678+11474864+11628386
542+11785113+11933885+12093906+12245985+12370546+12472988+12554539+12614987
550+12655340+12689735+12703930+12705946+12744154+12772552+12799612+12846382
558+12920490+12982690+13022435+13053631+13072291+13082076+13087844+13093684
566+13094920+13092124+13087183+13070156+13070562+13109831+13197038+13319246
574+13496154+13735853+13979153+14294105+14683991+15114453+15616119+16171839
582+16768629+17406800+18165322+19028800+19958756+20995086+22194100+23552308
590+25003454+26624080+28397498+30285202+32222848+34304164+36583256+39083340
598+41785860+44735448+47911152+51174728+54641316+58317376+62170836+66128644
606+70297328+74707560+79302472+83904856+88631328+93559992+98569968+103557696
614+108534024+113583688+118754160+123875352+128953344+134187352+139427216
621+144599760+149702464+154863296+160116864+165336208+170353872+175394816
628+180483056+185552144+190439744+195379104+200334960+205212416+209997488
635+214775616+219541600+224220544+228851648+233475840+238101936+242691776
642+247276272+251746384+256037760+260488512+264927104+269237536+273401504
649+277779296+282233536+286547744+290480576+294646400+298988128+303191136
656+307336768+311427872+315532384+319785024+323873824+327887776+331947776
663+335981184+340073760+344137536+348032768+352006816+356029952+360058752
670+364069920+368019136+371883712+375735680+379935136+383927424+387683584
677+391532736+395539136+399556480+403457824+407184256+411077184+415041760
684+418890752+422686816+426367232+430044992+433937472+437804224+441558400
691+445179008+448734240+452308384+455991456+459791040+463447264+466879168
698+470253504+473920416+477538656+481082400+484546496+487842112+491123648
705+494380704+497554944+500729600+504093536+507532128+510678208+513685152
712+516748608+519927136+522997792+525972128+528791648+531458880+534315968
719+537161471+539967423+542852863+545679679+548232575+550544319+553136703
726+555972671+558691007+560994431+563510143+565900863+568127039+570404735
733+572731967+575009535+577258815+579779199+581789567+583550911+585538751
740+587623615+589911039+592293375+594491199+596125055+597744703+599592639
747+601290367+603084543+604896319+606621183+608329023+610119999+611911231
754+613550783+615130623+616751999+618391423+619894015+621343423+622839039
761+624423359+626011839+627641343+629220927+630624063+631861183+633271615
768+634884991+636446719+637725887+638952191+640255103+641449919+642693183
775+644077183+645540735+646615359+647584319+648689471+650045951+651098495
782+652308031+653767935+655098879+656177471+657090111+658036415+659363903
789+660549631+661581567+662602047+663575679+664759487+666019135+667026815
796+668006975+668937727+669827647+670748415+671714943+672732095+673806655
803+674981951+676041791+677061887+678159743+679270719+680238335+681024319
810+681715519+682667967+683676415+684600447+685434303+686365951+687336831
817+688284095+689214847+689924415+690663871+691642431+692604351+693389567
824+694163327+695146367+696102079+697081087+698012415+698792191+699785599
831+700757439+701533055+702103999+702883199+703911551+705058431+706066367
838+706865983+707539007+708267071+709368895+710471679+711461631+712352191
845+713270847+713980223+714631167+715540927+716522431+717359487+718053183
852+718811647+719756479+720913471+722112959+722997695+723869951+724667647
859+725356479+726084991+727005695+727977151+728844863+729635135+730561535
866+731638463+732760575+733726143+734587327+735478783+736493247+737403327
873+738075967+738847167+740141375+740911935+741913983+743185087+744113983
880+745133951+746022655+746844159+747982079+749171711+750129279+750907775
887+751955135+752799679+753608383+754547711+755581055+756330815+757150719
894+758296703+759493503+760291071+760911231+761692991+762744383+763831743
901+764789439+765535231+766126655+766723391+767582847+768732799+769424255
908+770529535+771783551+772754111+774085695+774999935+775714175+776753023
915+778092735+779824959+781312575+782034623+783036607+784001535+784983679
922+786160255+787521151+788818111+790084671+791465215+792828607+794467903
929+796147135+797483519+798594367+799500863+800502591+801881151+803420095
936+804920639+806415295+807911743+808900863+809897279+811151039+812611455
943+813672383+814878911+815915455+816532863+817638143+818661567+819506559
950+820507711+822671167+824872703+827018495+829011647+830124159+830187775
957+830025791+830201087+830249151+830288767+830510591+831102143+832152767
964+833324031+834405823+835264575+835876735+836438975+837233471+838154239
971+838838847+840036543+841003647+841393727+841531775+842853951+843719999
978+844176447+845072767+845812671+846665535+847277887+847586175+849115967
985+850296703+851048575+851810495+853007231+854023551+855144895+856409791
992+857278079+857717887+858392959+859814527+861879231+862482943+863184959
999+864325247+865339583+860345215+861795903+863573631+865018815+866484799
1006+867816895+868943423+870142271+871211967+872447295+873800575+875075967
1013+876554431+877775551+878825407+879818047+880714559+881456831+882224575
1020+883100671+883537151+883699071+883955263+883931455+884047871+884283519
1027+884477567+884564799+884747967+885137471+885334591+885409471+885582591
1034+885578623+885308095+885375999+885592511+885640895+885750527+885871359
1041+885792191+885916991+886244479+886544255+886746943+887167807+887677375
1048+888297151+889205183+890264063+891328063+892639551+893721023+894531711
1055+895761407+897158335+898534655+900206527+901689663+902774079+904305279
1062+905885887+907906751+909963583+911951167+913744575+915448511+917421055
1069+919573055+921553343+923626431+925639295+927481151+929452735+931495935
1076+933543423+935634303+937754559+939662847+941514367+943487039+945505983
1083+947633663+949958079+951962815+953801279+955566655+957092799+958769983
1090+960473663+962138239+963862463+965518079+967112191+968637439+970277695
1097+971990975+973336319+974732031+976177983+977413311+978946559+980592959
1104+982019199+983226751+984591679+986033919+987289855+988519743+989717695
1111+990690751+991523903+992559359+993800063+994886463+995974527+996890175
1118+997489599+998168575+998870655+999518783+1000266559+1000724095+1000937663
1125+1001266111+1001465215+1001718399+1002140031+1002425087+1002368063
1131+1002027455+1001558015+1001111039+1000569343+999910015+999163839+998203263
1138+997236799+996265407+995270527+994309247+993208255+992002879+990852223
1145+989602559+988186495+986652991+985087871+983573503+981933119+980377343
1152+978775999+976872639+975054463+973244671+971159807+969094015+967012223
1159+964980159+962929023+961015551+959014079+956917439+954675071+952503103
1166+950445375+948457023+946618239+944803071+943047103+941359807+939755327
1173+938198783+936669695+935093439+933450111+932052543+930800191+929626175
1180+928607551+927668415+926816127+925890943+925205503+924856639+924569727
1187+924418303+924339967+924228607+924318527+924476799+924679743+925163903
1194+925623743+926136831+926678847+927223743+927847295+928500223+929250687
1201+930262271+931442815+932548031+933628223+934564095+935608575+936816447
1208+938100543+939392959+940561023+941799103+943138175+944548095+946001535
1215+947533503+949145535+950723135+952337087+954026047+955719935+957445119
1222+959337471+961198719+962911359+964741951+966741247+968756543+970937151
1229+973191551+975315071+977530495+979869759+982175039+984599167+987162943
1236+989625023+992206271+994657471+996969599+999246399+1001530111+1003640639
1243+1005667391+1007602303+1009245567+1010910719+1012351167+1013658367
1249+1015008511+1015951039+1016728767+1017512511+1017978175+1018322431
1255+1018598015+1018757887+1018776447+1018596735+1018524991+1018432191
1261+1018209919+1018060671+1017763519+1017282879+1016699583+1016196031
1267+1015597247+1015134591+1014864511+1014616639+1014561727+1014554111
1273+1014548415+1014728831+1014987583+1015422207+1015981759+1016673791
1279+1017512511+1018564799+1019816255+1021115647+1022598079+1024100543
1285+1025559551+1027304127+1029373759+1031340223+1033448063+1035507775
1291+1037426559+1039292543+1041259263+1043228863+1045162047+1047116415
1297+1049040191+1050863935+1052561983+1054150143+1055706367+1057075647
1303+1058583295+1060293375+1061658687+1062951039+1064081983+1064794303
1309+1065718783+1066671039+1067577663+1068620351+1069500095+1070307775
1315+1071001023+1071544895+1072017535+1072589695+1073078975+1073451071
1321+1073673791+1073741823+1073577535+1073367935+1073108671+1072615359
1327+1071899455+1071163263+1070337983+1069357119+1068241215+1067104895
1333+1065970047+1064527487+1063012415+1061266943+1059140223+1057013631
1339+1054784767+1052451711+1050237055+1047912767+1045407039+1042906751
1345+1040202431+1037392895+1034585279+1031781183+1028932095+1025941119
1351+1023059199+1020281151+1017384575+1014437311+1011506367+1008476543
1357+1005525631+1002646399+999760959+996857087+994015487+991241343+988410751
1364+985533375+982828031+980249343+977609215+975014463+972483903+970015423
1371+967475903+965060863+962706047+960366719+958009407+955404607+952847039
1378+949866239+946580287+943061631+939382911+935294911+930920511+926207167
1385+921042111+915963199+910851007+905337983+899643135+893778111+887513471
1392+881196927+874707007+868267007+861721151+855079935+848544383+841789055
1399+834933887+827845631+820347007+812958271+805416383+797435391+789430463
1406+781297087+773141695+764808383+756461823+748055999+739826751+731472383
1413+723347583+715365439+707636735+700030719+692547967+685329023+678152767
1420+670990335+663977983+657081919+650385279+643721151+637345215+631190015
1427+625266879+619565375+614023807+608579199+603499519+598623423+594034559
1434+589763263+585781631+582045119+578487231+575110399+571984511+569077375
1441+566319167+563800191+561535103+559472831+557554943+555952575+554564607
1448+553563647+552835967+552448703+552439871+552702591+553361087+554062911
1455+555126335+556084543+557138175+558135167+559193663+560157375+561062975
1462+561932607+562741887+563549183+564323007+565082239+565838015+566540159
1469+567192127+567838847+568455807+569046463+569606527+570158015+570725247
1476+571217983+571659583+572107647+572489791+572789055+573047999+573292543
1483+573552895+573830655+574212351+574595391+575023167+575494783+575968511
1490+576429311+577052607+577727551+578483007+579381439+580301375+581291519
1497+582249343+583276223+584263359+585216063+586165439+587088447+588111743
1504+589121343+590212159+591456895+592596543+593723711+594842751+595932479
1511+597027583+598110335+599193215+600252927+601340735+602455295+603544831
1518+604600895+605723903+606872063+608028223+609225599+610440831+611598207
1525+612863487+614185599+615592319+617082687+618639103+620228351+621950783
1532+623903487+625728191+627533695+629441663+631342399+633169599+635140479
1539+637067135+638898815+640664703+642282687+643845311+645225535+646523135
1546+647728191+648743359+649616383+650202559+650563583+650883967+651064383
1553+651228287+651371647+651539775+651690111+651806143+651899135+651894655
1560+652196095+652543103+653133503+654038527+654868735+655762047+656665279
1567+657652351+658626495+659604095+660673919+661762943+662947071+664271871
1574+665477247+666720575+667901439+669018111+670117503+671220607+672232511
1581+673111487+674067711+675006399+676038271+677094463+678271167+679495743
1588+680837055+682381311+683768575+685167743+686590399+687899775+689359167
1595+690918591+692525503+694182271+695935615+697766783+699676479+701711167
1602+703697471+705789759+707813439+709786303+711733631+713677759+715585407
1609+717397759+719291839+721208703+723126335+725127167+727020095+728870335
1616+730693055+732484671+734203327+735867071+737521087+739062079+740621183
1623+742175423+743782015+745417023+747043327+748780991+750316863+751728895
1630+753140543+754437887+755767999+757123455+758374271+759501311+760740735
1637+761915199+763286655+764942783+766319295+767731647+768867711+769732479
1644+770585087+771296895+772023999+772651775+773298879+773900607+774543167
1651+775236991+775848767+776537023+776942207+777302015+777270143+776920639
1658+776478591+775740735+774969279+774085567+773102527+772075839+770716415
1665+769178047+767378751+765220799+762728191+759950463+756655103+753026175
1672+749160575+744935167+740593023+736262911+731745855+727360639+723147967
1679+718618879+714192511+709859007+705332415+701139199+697150847+693282175
1686+689986559+686917951+684085631+681705919+679584255+677757247+676452799
1693+675420223+674473279+673593087+672704191+671675711+670526271+669461759
1700+668186239+666943103+665937791+664821247+663799679+662822463+661749247
1707+660577151+659271615+657736447+655801791+653558719+650958399+648193087
1714+645199615+641977535+638339519+634917183+631335743+627905663+624654975
1721+621324863+617837631+614751359+611742207+609124287+606779455+604770431
1728+603017087+601833023+601068863+600849663+600928639+601235903+601949695
1735+602801599+603738623+604838271+605941247+606970111+607836223+608668863
1742+609618751+610555647+611538815+612532927+613436735+614379775+615409791
1749+616357887+617190719+617796415+618224575+618580223+618726079+618967231
1756+619269631+619406079+619598207+619752255+619912767+620215551+620758399
1763+621435391+622275967+623457151+624535423+625634687+626798335+628020543
1770+629229759+630414079+631455167+632628031+633802367+634835967+635880959
1777+636712319+637395327+638090047+638718207+639282239+639801983+640440127
1784+641159423+641800831+642438335+643058175+643605759+644149055+644717503
1791+645167167+645695423+646362495+646806399+647195135+647739647+648228927
1798+648980991+649628863+650157631+646858047+647953215+648976575+649918335
1805+651031679+652100095+653331135+654889215+656250943+657581823+658927999
1812+660232959+661514175+662695615+663790335+664966591+666189823+667253055
1819+668210495+669283711+670344319+671174463+672345535+673778943+675127551
1826+676554367+677965055+679401471+680847487+682351167+683797823+685228799
1833+686705023+688056831+689369599+690591231+691665983+692789311+693801407
1840+694902143+696159935+697374015+698251391+698973375+699669503+700021183
1847+700567487+701435967+701882239+702188287+702295103+702192959+701999551
1854+701647103+701220991+700547583+699741695+698651199+697342335+695891903
1861+694283391+692333887+690432575+688141503+685614399+682968639+679811711
1868+676325183+672420543+668243519+663456639+657979519+652143103+645950399
1875+639245183+632225407+625020543+617437951+609584191+601203583+592596543
1882+583412543+573566271+563308415+552535871+541463167+529845920+517684096
1889+505194432+491968736+479126816+466142528+453287008+440317120+427495072
1896+414819872+402165248+389849408+377791520+366002880+354335872+343105728
1903+332160512+321799392+311864512+302232544+293216288+284575392+276404064
1910+268779392+261508144+254638784+248204160+242145840+236357216+230929088
1917+225738368+220864080+216225424+211774240+207771968+203987200+200379504
1924+197073648+194098304+191255472+188633552+186313840+184168688+182218448
1931+180477840+178932224+177585840+176439568+175464208+174671312+174034224
1938+173559584+173293552+173247536+173313520+173540528+173924624+174385456
1945+174968688+175710880+176549216+177511680+178545888+179704160+180957392
1952+182218448+183582896+185020752+186441664+187923904+189429344+190951200
1959+192552160+194173056+195839408+197516336+199254384+201006816+202812320
1966+204697376+206542832+208396304+210265584+212108832+213993968+215955920
1973+217863920+219714928+221658144+223709952+225729440+227803648+229885408
1980+231852784+233839888+235884256+237935168+240017216+242108480+244250624
1987+246441232+248658688+250847728+253053152+255165008+257255920+259445968
1994+261598176+263694032+265759632+267771232+269614880+271570016+273544096
2001+275564576+277543424+279569504+281591360+283441952+285214912+286954944
2008+288537152+290078528+291560320+293021312+294341344+295576256+296692640
2015+297707552+298587648+299366816+300028544+300472576+300768448+300862592
2022+300689760+300413440+300008384+299352736+298545536+297513856+296126464
2029+294725408+293131072+291513536+289847584+288298368+286768608+285174688
2036+283711584+282375328+281222112+280241280+279386336+278647552+278120640
2043+277783168+277569504+277504608+277640960+277990432+278358816+278938464
2050+279594496+280251552+280946368+281704640+282450176+283381856+284502784
2057+285513632+286603872+287713600+288736768+289852832+291140160+292400448
2064+293600736+294765248+295951424+297085408+298293888+299589472+300780576
2071+301972768+303110048+304225696+305256448+306202464+307138912+308112672
2078+308917344+309770656+310548032+311166912+311754272+312325152+312844928
2085+313376352+313937472+314389728+314822368+315155360+315269792+315531584
2092+315844288+316100864+316443936+316713248+316750816+316683360+316757152
2099+316760640+316912544+317286016+317507040+317669024+317848224+317966272
2106+318146432+318387456+318629408+318858048+319116896+319548864+320021312
2113+320557312+320991296+321299200+321669920+322056320+322503840+322888768
2120+323269856+323595456+323868832+324136128+324444576+324615328+324661984
2127+324717920+324719296+324712928+324596128+324431168+324037184+323450592
2134+322889472+322252896+321539840+320826272+319938624+318843296+317795936
2141+316704864+315571904+314365440+313204864+312041728+310792768+309455232
2148+308297312+307084192+305728288+304397216+302958656+301410688+299649216
2155+298045728+296436704+294824256+293206400+291672928+290108096+288654240
2162+287387232+285985504+284512448+283138144+281676288+280415840+279335776
2169+278275776+277429312+276683232+275940992+275445376+275030848+274555328
2176+274226400+273993152+273847904+273822592+273830880+273897728+274064544
2183+274306080+274576160+274941504+275371200+275777792+276350656+277080256
2190+277882720+278714144+279608608+280389536+281228512+282129728+283001856
2197+283937440+284740672+285551328+286300448+287056000+287812288+288562688
2204+289211520+289963040+290815168+291558400+292248672+293072832+293937024
2211+294751936+295678624+296505312+297289504+297887392+298520000+299176480
2218+299702816+300295840+300927840+301449728+301817664+302206880+302532992
2225+302760608+302939616+303172864+303139168+303030976+302659264+302030112
2232+301260512+300301184+299165696+297867936+296434048+294812288+293015392
2239+291118464+288955424+286502208+284025376+281417056+278452000+275449824
2246+272196864+268533664+264996928+261516112+257877296+254339344+250706512
2253+246844624+243101568+239649088+236376624+233087744+229996672+226961472
2260+223808656+220958768+218364368+215847616+213430576+211179216+209103040
2267+207136384+205254576+203559184+202135392+200612736+199183456+197752448
2274+196242320+194904928+193616176+192308848+191139360+190014640+188892960
2281+188058384+187371776+186555008+185892960+185212640+184416208+183773312
2288+183201472+182673632+182209760+181772688+181228384+180647984+180205728
2295+179702736+179138848+178586752+177965072+177171728+176559104+176082768
2302+175452480+174853616+174119952+173164800+172371488+171581136+170877904
2309+170170608+169619664+169059888+168791152+168783856+168914512+169306848
2316+169831936+170515728+171271488+172334928+173266608+174077104+174799344
2323+175309504+175874144+176356320+176661760+176903936+176797408+176739456
2330+176913824+177038768+177403504+177832160+177968880+178235936+178526000
2337+178568240+178909904+179141776+178990176+178933680+178798864+178732352
2344+178787392+178672112+178563904+178508400+178303168+178236880+178462912
2351+178750368+179158432+179718448+180263440+180872768+181729440+182601904
2358+183532688+184267424+184695056+185062064+185239888+185412976+185350256
2365+185111120+185023664+184815328+184501520+184454032+184358032+184181248
2372+184454032+184590784+184565984+184633472+184387136+184269872+184144432
2379+183779648+183621088+183261248+182879360+182752128+182507552+182399248
2386+182281904+182035776+181807696+181395648+181019200+180527552+180028784
2393+179757072+179305792+179149824+179126064+178880944+178773632+178383776
2400+177579216+176844976+175991136+175258928+174946208+174467136+173947456
2407+173234032+172461856+171884672+171259456+170665680+169795232+168740032
2414+167888496+167159968+166192208+165294784+164715408+163740960+162627408
2421+162031184+161014816+159704560+158743984+157737936+156831872+156004240
2428+155366912+154325040+152875840+151688640+150329584+148902784+147459632
2435+146080976+144795840+143381168+141885072+140599808+139435232+137948160
2442+136807488+135652272+133841840+132320952+130961112+129292624+127721368
2449+126550848+125317536+123968176+122864760+121513480+120435680+119495056
2456+118390440+117560512+116223072+115339000+114848168+114197696+114101080
2463+113153784+111777048+110682280+109428240+108699864+108308584+107812704
2470+107070688+106385376+106056896+105661688+105096136+104428592+103396136
2477+102322528+102581080+102215456+101672432+101540488+101088856+100616696
2484+100707128+100686424+100294736+99584680+98797856+98078712+97502136+97303408
2492+97197936+97179984+97008776+97213760+97811392+97393432+96798752+96306600
2500+95676736
##END=
