##TITLE= TSR_2002_23_FORS_00009.asd.sco.abs | Av. of  3
##JCAMP-DX=4.24
##DATA TYPE=INFRARED SPECTRUM
##SAMPLING PROCEDURE=
##ORIGIN= ASD Instrument
##XUNITS=NANOMETERS
##YUNITS=ABSORBANCE
##RESOLUTION=1
##FIRSTX=350
##LASTX=2500
##DELTAX=1
##MAXY=24.527719
##MINY=-6.7069306
##XFACTOR=1
##YFACTOR=2.2843219e-008
##NPOINTS=2151
##FIRSTY=16.194845
##XYDATA=(X++(Y..Y))
350+708956355+740047768+736255903+741316678+774322185+799694363+801845923
357+802822842+816725488+817605884+816354259+818706714+829119837+857014471
364+879397860+885744913+879359201+879091592+889622363+909764266+933064791
371+927768553+926462988+943112781+930431952+926033979+938881802+962533099
378+963556193+959553913+957677059+958362573+968255675+969737920+961559603
385+961582315+968389020+971734593+967307562+966962969+966772929+969834944
392+977233395+973574875+972098725+974260304+974103079+974064336+976383643
399+977034671+965267638+963729283+966428251+966526110+971222169+972416265
406+969240443+964708039+964489860+966528281+967968110+966073137+961265359
413+958795006+959331309+955394408+954162739+955368942+956344191+953544274
420+949832899+948078870+949970002+950064771+948369858+945832290+943653510
427+941371026+940454475+940915714+938307257+935948540+934331613+932790753
434+931046994+929802048+928987030+927775316+925479306+923236316+921691448
441+919632904+919354189+919185608+917180085+917223253+916120921+913854969
448+913160271+913536761+912969062+911255362+912237959+912760152+912217335
455+911286924+912449458+912839057+912155714+912262257+912335568+912469330
462+912774096+913159353+913530665+914136188+915109434+915495693+915993086
469+917161548+919181684+919400948+919639583+921065802+922100418+922944075
476+924285878+926552330+927838524+929494444+931432835+932304881+933873713
483+936183501+938783025+940753145+943246627+945757309+947411476+948882031
490+951022486+953584269+955315754+957831363+960356156+962087975+963236982
497+964645833+966218506+967655663+970493989+972661580+973649688+975020298
504+977171357+979462107+981418868+983935311+985961458+987880311+990659688
511+993479060+996226291+998953482+1001823537+1005433211+1008749643+1011008164
518+1013850999+1017350206+1021211625+1024862548+1027734106+1030120878
524+1032560087+1035803041+1038804521+1041038242+1042565242+1045230311
530+1047134385+1048171422+1049805048+1050878073+1051352171+1051495953
536+1051867183+1051592476+1050969085+1050623239+1050023227+1049483082
542+1049087388+1048603187+1048184281+1048189124+1048840236+1049840034
548+1051360938+1053347090+1055577973+1057631507+1059994649+1062514851
554+1063867007+1065149192+1066256785+1066768123+1066501432+1065973061
560+1065573359+1065524597+1065537873+1065618865+1065847063+1066352223
566+1067040575+1068000210+1069364724+1071184466+1072707124+1073531326
572+1073741823+1073713434+1072997778+1071433455+1070401093+1068661342
578+1066220631+1063749777+1060677908+1057388864+1054246357+1051474244
584+1047817059+1043765433+1040145238+1036694626+1032555828+1027811257
590+1023296137+1018271182+1013047587+1008026222+1003515945+999006336+994336662
597+989530052+984679022+979439897+974038285+969395915+964373799+959200302
604+954290824+949605953+944713091+939601716+934565239+929970212+925421526
611+920690398+915983735+911726705+907695452+903522170+899362916+895402218
618+891572361+887585195+883616231+879693190+875794281+871849615+867705724
625+863548056+859645723+855710075+851532200+847164036+842963617+838749839
632+834453816+830033632+825407210+820803249+816218075+811515169+806705887
639+801744891+796641115+791503188+786145412+780783712+775594936+770082773
646+764362536+758601050+752938342+746803290+740430103+734105428+727968121
653+721430778+714569549+707706316+700796157+693733115+686408016+678735401
660+671222058+663692557+655889478+647728278+639471725+631227863+622982832
667+614438713+605663015+596728713+587650378+578538310+569349717+559994046
674+550375692+540794620+531192381+521316020+511304018+501201337+491056658
681+480938321+470694447+460346117+449957751+439554647+429131378+418664941
688+408130705+397592043+387089494+376631240+366157079+355788710+345386107
695+334825214+324406997+314178737+304039693+293788659+283577975+273505666
702+263611354+253858778+244208319+234682125+225311946+216073923+206800893
709+197593910+188754482+180070401+171496244+163043106+154772536+146664722
716+138738401+131006304+123414181+116059096+108888207+101744579+94730863
723+88016213+81621985+75276613+68958419+62819568+57001993+51309967+45796083
731+40456567+35234738+30179395+25308344+20574415+15815998+11351918+7145869
739+3056426-972544-5013738-8984965-12705232-16071949-19388728-22767060
747-25962851-29079691-32088419-34953276-37725470-40482689-43193778-45776685
755-48222448-50593888-52920355-55188508-57367278-59492787-61583859-63563952
763-65520123-67426926-69227109-70946805-72644906-74369597-76137622-77695219
771-79196778-80722160-82126596-83543296-84975417-86374859-87656601-88875579
779-90119053-91442997-92573656-93746074-95010621-96182464-97337066-98419516
787-99430930-100530569-101641888-102693819-103648068-104588948-105565356
794-106557868-107509874-108447497-109362868-110248775-111106387-111967965
801-112831683-113701559-114601931-115462330-116303869-117164247-118049663
808-118871820-119627241-120369961-121184352-121974801-122712511-123451400
815-124233530-125020660-125780058-126520043-127133968-127746264-128467932
822-129205016-129876209-130556744-131341651-132079402-132776052-133441630
829-134086637-134774426-135452769-136072257-136612380-137256301-137989565
836-138737294-139392310-140007404-140586364-141158697-141849805-142539817
843-143197567-143837647-144508737-145052732-145534596-146128523-146789676
850-147365307-147849894-148376731-148983997-149687849-150405623-150959086
857-151540280-152111454-152633803-153151184-153727357-154339101-154931410
864-155428783-155960547-156571716-157241177-157829593-158351932-158888726
871-159504331-160043349-160527393-161054763-161710301-162188845-162743925
878-163387877-163923544-164525258-165110345-165664350-166263850-166843385
885-167357405-167842546-168430419-168928919-169402986-169930335-170517071
892-170995009-171485703-172076895-172653674-173100521-173517955-174014233
899-174563770-175166058-175739497-176216329-176622085-177020660-177490311
906-178037052-178462805-179017374-179624108-180150913-180757062-181265019
913-181720205-182241437-182829279-183522078-184163191-184607836-185067447
920-185522090-185982265-186472436-187042535-187580425-188103891-188669544
927-189230187-189907935-190594639-191131965-191623243-192035678-192474791
934-193048731-193637721-194203374-194756795-195305790-195726053-196151263
941-196663019-197249254-197697760-198153509-198595899-199001154-199543490
948-200016419-200420003-200885689-201684508-202417803-203105070-203747812
955-204034834-204092552-204184148-204428399-204609943-204824176-205142239
962-205609657-206215284-206794798-207243346-207603052-208046006-208403479
969-208749910-209136252-209555931-210061048-210477366-210742157-210953092
976-211418840-211886780-212263124-212582877-212902609-213237914-213567645
983-213912364-214460795-214904354-215234607-215567136-216040086-216477528
990-216933257-217390655-217699283-217987411-218352650-218842236-219403464
997-219720420-220009070-220406560-220905561-218945502-219476190-220138971
1004-220677989-221204231-221683276-222094605-222540356-222943898-223390234
1011-223894265-224350579-224822401-225244835-225608946-225984225-226349505
1018-226693640-227032284-227402533-227672313-227881014-228098587-228263474
1025-228441115-228611554-228798066-228966814-229159442-229406428-229614065
1032-229804460-230015395-230161390-230241318-230400088-230563826-230721448
1039-230919650-231100088-231221619-231410364-231673506-231894420-232087632
1046-232327437-232553882-232812577-233152850-233553637-233942798-234396272
1053-234770946-235072976-235468190-235888412-236303060-236774361-237211782
1060-237555395-237997242-238461341-239006997-239535431-240086117-240589042
1067-241050887-241585980-242170524-242698979-243245740-243773110-244248815
1074-244755644-245266878-245793704-246335477-246879462-247407374-247915853
1081-248419884-248954455-249503471-250083549-250606994-251117684-251588463
1088-251998686-252434438-252862967-253287593-253716707-254146885-254577126
1095-254991232-255417006-255871628-256236323-256592147-256983479-257315464
1102-257680160-258097041-258473969-258804222-259169502-259572502-259924966
1109-260263589-260597808-260908105-261166196-261444910-261770717-262056048
1116-262345241-262617213-262830424-263067431-263326127-263570356-263846253
1123-264046104-264182100-264354167-264493503-264668389-264891514-265091908
1130-265207907-265266230-265317267-265376655-265408885-265427755-265430532
1137-265405002-265418884-265411077-265382771-265351147-265291195-265187366
1144-265117437-265046903-264933701-264817703-264707215-264606747-264475176
1151-264342540-264202640-264009448-263836797-263681951-263485419-263298343
1158-263106863-262918659-262726595-262557304-262356346-262120988-261839018
1165-261575312-261347176-261142336-260979162-260807032-260625008-260458451
1172-260325252-260203095-260082651-259936092-259756218-259629114-259529188
1179-259432624-259369374-259294414-259221125-259118444-259047951-259059015
1186-259075088-259105648-259161153-259206701-259306062-259421497-259540293
1193-259727390-259876704-260022157-260176481-260308574-260472875-260652207
1200-260850931-261115680-261418233-261694087-261968313-262187577-262392438
1207-262625041-262885908-263155688-263410480-263703013-264022787-264363602
1214-264722203-265108002-265527681-265930138-266344786-266774443-267206875
1221-267637618-268090570-268557425-269002612-269462807-270005728-270538045
1228-271049842-271578839-272050704-272517016-273023782-273526729-274025208
1235-274528154-275013858-275504572-275977522-276411604-276869567-277352494
1242-277784906-278206276-278626476-278955644-279285375-279587343-279850464
1249-280111373-280299555-280463293-280634859-280757496-280869111-280962900
1256-281026754-281077813-281096683-281141647-281210490-281225457-281237690
1263-281228797-281179951-281095013-281036711-280974527-280954049-280979015
1270-281000098-281066729-281128350-281160538-281244328-281338700-281458039
1277-281599630-281753933-281931553-282136393-282360667-282595461-282850274
1284-283119470-283371507-283692324-284094802-284460604-284852520-285240532
1291-285585815-285918886-286267467-286630492-286994687-287357149-287728524
1298-288088774-288421845-288732142-289040205-289313367-289618654-289960033
1305-290252024-290556225-290807678-290968118-291185148-291406082-291620900
1312-291886798-292113305-292322550-292503551-292651738-292798839-292960386
1319-293095276-293221294-293330091-293422794-293487150-293541590-293595968
1326-293607073-293573778-293549335-293518253-293459429-293385033-293302328
1333-293221837-293080288-292919869-292716699-292431931-292163257-291881266
1340-291586499-291326155-291052492-290758811-290477988-290172096-289852343
1347-289537056-289231185-288911452-288563957-288248108-287958330-287640831
1354-287318845-287003579-286668296-286340214-286040980-285716259-285384336
1361-285032374-284673773-284281294-283852222-283433670-283038999-282583250
1368-282105311-281597960-281060592-280471058-279871547-279280365-278707531
1375-278152420-277612296-277127156-276587011-276041878-275442951-274858407
1382-274135090-273354641-272461469-271426206-270408144-269351798-268216046
1389-267028108-265800237-264472984-263146232-261775727-260422923-259065152
1396-257668491-256311262-254860203-253368105-251797123-250063551-248319980
1403-246514767-244571345-242604063-240572363-238484094-236307506-234087645
1410-231786207-229549145-227240986-225019434-222833431-220735143-218687912
1417-216669551-214763933-212817150-210867048-208918094-206972459-205050684
1424-203106677-201219345-199344787-197552328-195810949-194118979-192457027
1431-190908839-189412274-188026176-186755534-185589807-184502379-183464903
1438-182456234-181528641-180687676-179893908-179187813-178586068-178037637
1445-177536381-177131147-176792545-176589354-176468867-176475568-176615447
1452-176850826-177227169-177611863-178127563-178588845-179060104-179532511
1459-180033224-180491750-180931405-181363796-181762934-182175912-182603899
1466-183011888-183416579-183802378-184173169-184532939-184883147-185210123
1473-185511569-185814101-186134940-186395264-186633941-186836568-186983670
1480-187112464-187224038-187333962-187451109-187569320-187743057-187916774
1487-188095020-188292053-188476352-188632889-188872151-189135835-189433357
1494-189781395-190161099-190586289-190982693-191421221-191828083-192209979
1501-192582461-192938827-193331870-193703225-194115660-194593620-195027702
1508-195465708-195882569-196273900-196681367-197073262-197479602-197893144
1515-198318938-198755212-199192112-199633959-200088582-200544352-201017845
1522-201521313-202014240-202508314-203007879-203498030-204014837-204547738
1529-205097317-205658545-206244696-206893638-207489830-208073247-208655537
1536-209237826-209802916-210413553-211009724-211567612-212103268-212580101
1543-213048083-213468283-213845190-214196025-214491877-214762242-214959296
1550-215089197-215215194-215274018-215318460-215378974-215452222-215528247
1557-215615418-215676496-215705324-215810823-215916322-216109472-216396974
1564-216647926-216928811-217176944-217413951-217664882-217901931-218182774
1571-218475871-218800070-219176977-219508942-219845875-220176169-220489786
1578-220795678-221115974-221392956-221601678-221873671-222146227-222460407
1585-222812390-223189276-223589542-224005296-224478768-224901223-225325911
1592-225724987-226076365-226459409-226832976-227231530-227637306-228089737
1599-228565463-229068368-229635148-230158050-230702056-231209428-231679059
1606-232148105-232609387-233054615-233461498-233920567-234390177-234869222
1613-235406548-235884529-236340780-236777680-237196795-237585370-237940067
1620-238296476-238601742-238951492-239322283-239701987-240106072-240508530
1627-240941505-241322316-241694798-242032858-242317625-242611808-242894363
1634-243161366-243400064-243666546-243906893-244229402-244645699-244977685
1641-245349081-245608298-245764856-245931391-246054592-246185036-246287153
1648-246415968-246539753-246694056-246889461-247053763-247255263-247357986
1655-247446785-247412948-247275803-247104300-246832307-246573048-246276110
1662-245980759-245692088-245305767-244904979-244454782-243901904-243272940
1669-242564673-241714795-240797744-239822453-238743291-237625888-236502931
1676-235317206-234173689-233082337-231872773-230681537-229509129-228237965
1683-227014520-225811615-224601446-223504562-222443206-221422931-220502602
1690-219649405-218899411-218320440-217841959-217407334-216984295-216552989
1697-216084485-215583251-215126937-214609003-214084473-213655359-213171868
1704-212713321-212325309-211885152-211422723-210976429-210439646-209780726
1711-209040794-208162025-207213370-206172534-205051790-203770607-202573776
1718-201328163-200133002-199011111-197832107-196593674-195458465-194336615
1725-193319680-192358750-191523881-190733453-190198277-189851909-189744802
1732-189771438-189940750-190326529-190851080-191474471-192163387-192836731
1739-193434530-193935807-194422075-194887238-195286940-195706619-196075197
1746-196374410-196706896-197066603-197398589-197724395-197993069-198196844
1753-198378889-198497122-198624768-198719162-198725821-198730810-198718035
1760-198739702-198823513-198988921-199211525-199506313-199918163-200346714
1767-200811356-201335949-201894901-202432791-203005124-203531909-204070362
1774-204606582-205085648-205528059-205905008-206220795-206521699-206817551
1781-207067939-207316615-207614700-207915019-208212562-208485661-208686076
1788-208839836-208984704-209106255-209212276-209372716-209527604-209609202
1795-209695789-209839007-210005543-210318616-210567292-210786577-209603107
1802-209994438-210326382-210607267-210984717-211332796-211755815-212323117
1809-212818799-213307300-213806886-214272613-214723917-215161359-215568221
1816-215991761-216454754-216845000-217171391-217541660-217908026-218213835
1823-218598549-219039875-219475626-219927472-220380446-220851747-221324133
1830-221811507-222282223-222750748-223240356-223692765-224131836-224545378
1837-224941197-225315871-225652282-225994224-226342283-226674790-226931795
1844-227123317-227355336-227531870-227740008-228063623-228251847-228370643
1851-228462239-228533838-228527701-228487205-228449464-228299586-228081971
1858-227782237-227409212-226976759-226452729-225872652-225306456-224610339
1865-223914764-223250313-222401019-221507305-220433195-219260245-217874147
1872-216221588-214414726-212404694-210124902-207706297-205121177-202419473
1879-199600665-196535936-193361282-189869673-186072776-182047118-177710097
1886-173166546-168238344-162941010-157303341-151131122-144941723-138469184
1893-131835694-124905768-117857588-110649531-103212891-95760563-88238368
1900-80620079-72820846-65069389-57239626-49602535-42077488-34543025-27270668
1908-20147497-13188243-6491971+0+6268803+12242289+17947679+23483692+28737205
1917+33871341+38766270+43439156+48004338+52209813+56270363+60271056+63894194
1925+67187049+70299022+73093908+75555875+77840081+79881258+81678669+83265114
1933+84564636+85609349+86445951+87064823+87413357+87553335+87485650+87140373
1941+86654632+85977891+85080373+84083378+82913152+81552056+80082200+78464052
1949+76732697+74901386+72965223+70986758+68935071+66829591+64785727+62731264
1957+60588581+58376944+56100519+53874051+51613637+49435378+47241636+45051151
1965+42807955+40487638+38280589+36106772+33881363+31722054+29565961+27349437
1973+25209483+23167837+21087786+18865741+16705330+14556451+12401051+10376543
1981+8368741+6314850+4232109+2132171-3871-2104971-4216033-6328787-8362689
1990-10465969-12529843-14517738-16580961-18581548-20512760-22425125-24250876
1998-25928377-27645326-29322866-31037065-32702339-34367086-36005732-37472901
2006-38810688-40070786-41207083-42291202-43337015-44372291-45284343-46161410
2014-46881893-47481978-47980457-48390669-48643275-48759253-48803141-48666607
2022-48321862-47939972-47492556-46840306-46088710-45166638-43950937-42753063
2030-41408573-40101327-38737419-37396861-36074069-34682941-33380097-32165537
2038-31081420-30118288-29252898-28476934-27850685-27354979-26960334-26672762
2046-26559516-26603934-26655606-26854324-27126291-27441044-27814661-28272550
2054-28771640-29391715-30154435-30867176-31652657-32460833-33235271-34100072
2062-35032129-35996889-37008267-37932522-38876745-39823780-40771913-41723877
2070-42651473-43583470-44490507-45402027-46241870-47035706-47811177-48588323
2078-49256709-49910629-50505094-51017424-51445442-51875093-52292538-52666095
2086-53006357-53307276-53568179-53803532-53926211-54131594-54412484-54593454
2094-54783818-54984780-55007559-54967011-55061410-55152427-55325084-55662575
2102-55901252-56071138-56324297-56605761-56884366-57244088-57566587-57860252
2110-58118916-58518002-58901647-59286283-59628831-59880789-60214961-60517509
2118-60846692-61141458-61422370-61647186-61863079-62035741-62144523-62246661
2126-62313819-62359335-62412090-62436518-62313882-62155096-61859760-61460632
2134-61052622-60621280-60075108-59472247-58763970-57898520-57044780-56136094
2142-55212389-54191534-53251797-52370796-51399335-50371838-49487032-48487834
2150-47283260-46119781-44908015-43653459-42314532-41041109-39780502-38462091
2158-37074323-35814246-34543615-33337960-32309324-31160782-29904595-28776102
2166-27629840-26605666-25737442-24840409-24079339-23515945-22938047-22515592
2174-22243075-21870597-21581943-21328783-21211117-21180594-21178944-21256615
2182-21435385-21679622-21925529-22321335-22689901-22948012-23362686-23860633
2190-24469582-25127330-25765722-26368030-26970889-27533750-28097161-28729443
2198-29275677-29800255-30312057-30816097-31261292-31732016-32156655-32679560
2206-33234679-33813068-34477561-35170312-35908053-36627498-37393500-38108462
2214-38837339-39410755-40026918-40693102-41235955-41856539-42439389-42948502
2222-43393636-43762241-44077545-44300144-44487736-44667057-44699251-44724274
2230-44481077-44023147-43476380-42760846-41910392-40932327-39857030-38647544
2238-37258106-35819259-34083466-32032345-29912339-27633120-25142367-22659928
2246-19859434-16755310-13690000-10517579-7196929-3824118-219806+3582123+7282443
2255+10815625+14181793+17732785+21241598+24730994+28455193+31863008+35038201
2263+38156749+41169859+44058048+46805321+49449275+52046080+54427967+56564013
2271+58694552+60568040+62581913+64715229+66632564+68471536+70389444+72122510
2279+73720650+75467566+77124592+78468451+79867324+81041908+81977856+83140212
2287+84258237+85315663+86493628+87569429+88538061+89735424+90982791+91988100
2295+93167646+94519291+95859403+97421398+99474150+101102317+102560567+104208096
2303+105705256+107427191+109551583+111319003+113106504+114558064+115963617
2310+116830622+117406305+117451822+116932249+115899721+114115643+112303771
2317+110051669+107776304+105352239+103265546+101408763+99842770+98609347
2324+97442012+96391678+95511845+94861839+94697495+94635916+94530375+94482698
2332+94230745+93859870+93707227+93522906+93425235+93741085+93696101+93720586
2340+94171284+94463264+94962328+95599006+96264626+97179423+97985381+98565458
2348+99292115+99646280+99592445+99516400+98788605+97554076+96353415+95074434
2356+93569529+92252275+90769581+89357912+88443688+87551665+87071503+86777248
2364+86692368+86976029+87147543+87452277+87823668+87933050+88203874+88415936
2372+88162835+88040135+88034019+88027955+88459824+88964963+89444592+90220596
2380+90740732+91384622+92200120+92478772+92983910+93468017+93685580+94388847
2388+95168765+95614495+95954266+96506027+96943522+97438025+98221898+98412283
2396+98628823+99179968+99265469+99635717+100385732+100966331+101960555
2403+102866439+103275524+103875651+104419062+105270568+106591737+107626426
2410+108574069+109866295+111245160+112595208+113851948+114763447+116137907
2417+117608379+118580925+120303925+121793873+122479939+124229668+126010980
2424+127311525+128936394+130054914+131071297+132217559+133722954+135828601
2431+137899075+140083971+142428128+145211492+148428917+151341451+153884959
2438+156137592+157741305+159454369+162287069+164813866+167230312+170469300
2445+173006085+175708916+178858583+181276040+183458703+185654204+187886777
2452+190040592+192696205+194935500+196992729+199748267+202033131+204778128
2459+206924699+208024338+209066803+209953315+212051709+215105813+217799166
2466+219845311+221422347+222116189+223104339+225254250+226785758+227849369
2473+229147231+230551072+231872794+233941650+236321346+235359310+237154065
2480+238087691+238529580+239441037+240024475+240921508+241413933+242328772
2487+243400127+243132518+244023372+246050688+246988844+247391802+247575601
2494+248037425+247730927+247164752+248401557+248973889+249877581+251331417
##END=
